0.074267,0.022598,0.022643,0.01556,0.0394,0.014685,0.039708,0.18021,1
0.050711,0.020817,0.018377,0.012187,0.040293,0.014264,0.027251,0.14994,1
0.048496,0.015883,0.014616,0.011231,0.034173,0.014406,0.027474,0.15346,1
0.049308,0.016817,0.017469,0.011321,0.033207,0.015229,0.027213,0.15085,1
0.047905,0.013607,0.024664,0.010086,0.035084,0.015625,0.035113,0.2031,1
0.046043,0.013975,0.025235,0.012103,0.036281,0.016263,0.037657,0.21684,1
0.046043,0.013975,0.025235,0.012103,0.036281,0.016263,0.037657,0.21684,1
0.046043,0.013975,0.025235,0.012103,0.036281,0.016263,0.037657,0.21684,1
0.046918,0.017527,0.019557,0.012187,0.037872,0.015883,0.038087,0.17161,1
0.046918,0.017527,0.019557,0.012187,0.037872,0.015883,0.038087,0.17161,1
0.045218,0.017527,0.019557,0.012103,0.03656,0.016137,0.037522,0.17054,1
0.045218,0.017527,0.019557,0.012103,0.03656,0.016137,0.037522,0.17054,1
0.058394,0.019401,0.021772,0.010578,0.039036,0.013607,0.0383,0.20901,1
0.060161,0.020866,0.024951,0.012019,0.041805,0.012837,0.032961,0.2193,1
0.060161,0.020866,0.024951,0.012019,0.041805,0.012837,0.032961,0.2193,1
0.066841,0.024623,0.02491,0.012678,0.03681,0.010769,0.032401,0.16864,1
0.066841,0.024623,0.02491,0.012678,0.03681,0.010769,0.032401,0.16864,1
0.062938,0.024581,0.025235,0.012758,0.037765,0.0115,0.032149,0.16688,1
0.056228,0.02228,0.02429,0.013073,0.03806,0.012678,0.034705,0.18689,1
0.056228,0.02228,0.02429,0.013073,0.03806,0.012678,0.034705,0.18689,1
0.056228,0.02228,0.02429,0.013073,0.03806,0.012678,0.034705,0.18689,1
0.054239,0.020172,0.026723,0.013755,0.037467,0.012597,0.030358,0.15719,1
0.045443,0.018707,0.027732,0.012837,0.039606,0.013456,0.031477,0.1623,1
0.045443,0.018707,0.027732,0.012837,0.039606,0.013456,0.031477,0.1623,1
0.045443,0.018707,0.027732,0.012837,0.039606,0.013456,0.031477,0.1623,1
0.051349,0.019137,0.027138,0.013532,0.040192,0.01338,0.027026,0.16517,1
0.053198,0.020719,0.028952,0.013532,0.039734,0.012837,0.030055,0.162,1
0.05194,0.018869,0.026532,0.012516,0.040141,0.012187,0.033299,0.16761,1
0.05194,0.018869,0.026532,0.012516,0.040141,0.012187,0.033299,0.16761,1
0.053121,0.018976,0.026837,0.012019,0.040116,0.01227,0.031702,0.16335,1
0.041487,0.013829,0.026185,0.011762,0.044789,0.011231,0.026799,0.15551,1
0.036084,0.015819,0.027026,0.010086,0.044447,0.010769,0.025154,0.12467,1
0.036084,0.015819,0.027026,0.010086,0.044447,0.010769,0.025154,0.12467,1
0.039451,0.019918,0.023394,0.011231,0.044125,0.013532,0.031412,0.15005,1
0.046021,0.020571,0.022143,0.010674,0.042216,0.014406,0.035487,0.15811,1
0.046021,0.020571,0.022143,0.010674,0.042216,0.014406,0.035487,0.15811,1
0.0475,0.019764,0.018869,0.012516,0.037359,0.016263,0.039836,0.16489,1
0.0475,0.019764,0.018869,0.012516,0.037359,0.016263,0.039836,0.16489,1
0.048328,0.018707,0.01919,0.01227,0.039631,0.016997,0.039348,0.17109,1
0.050288,0.019401,0.025793,0.011934,0.036838,0.014406,0.02992,0.14099,1
0.050288,0.019401,0.025793,0.011934,0.036838,0.014406,0.02992,0.14099,1
0.052795,0.018761,0.027621,0.012597,0.039322,0.015428,0.033115,0.14021,1
0.052795,0.018761,0.027621,0.012597,0.039322,0.015428,0.033115,0.14021,1
0.050811,0.018597,0.027732,0.011848,0.038273,0.015625,0.032557,0.14074,1
0.050811,0.018597,0.027732,0.011848,0.038273,0.015625,0.032557,0.14074,1
0.053006,0.020422,0.029646,0.013228,0.039708,0.015428,0.038854,0.1358,1
0.054239,0.022235,0.03125,0.013073,0.039244,0.014476,0.039477,0.17201,1
0.035858,0.018761,0.023995,0.012916,0.039913,0.014048,0.039089,0.16532,1
0.03725,0.018923,0.022688,0.013456,0.040192,0.013681,0.029405,0.14171,1
0.03725,0.018923,0.022688,0.013456,0.040192,0.013681,0.029405,0.14171,1
0.038538,0.016074,0.019505,0.01227,0.038033,0.014476,0.032117,0.13237,1
0.038538,0.016074,0.019505,0.01227,0.038033,0.014476,0.032117,0.13237,1
0.042096,0.016756,0.019401,0.013073,0.039348,0.015819,0.036672,0.10203,1
0.042096,0.016756,0.019401,0.013073,0.039348,0.015819,0.036672,0.10203,1
0.04401,0.015229,0.018869,0.011762,0.036672,0.013532,0.035858,0.11316,1
0.04401,0.015229,0.018869,0.011762,0.036672,0.013532,0.035858,0.11316,1
0.046983,0.015296,0.018923,0.011675,0.037222,0.013681,0.036616,0.12561,1
0.046983,0.015296,0.018923,0.011675,0.037222,0.013681,0.036616,0.12561,1
0.049266,0.015883,0.018923,0.011588,0.040065,0.013975,0.037168,0.12457,1
0.049266,0.015883,0.018923,0.011588,0.040065,0.013975,0.037168,0.12457,1
0.049039,0.015947,0.018761,0.0093533,0.03441,0.01227,0.035171,0.23079,1
0.049039,0.015947,0.018761,0.0093533,0.03441,0.01227,0.035171,0.23079,1
0.046745,0.015947,0.02002,0.0093533,0.035487,0.011588,0.033633,0.22992,1
0.046745,0.015947,0.02002,0.0093533,0.035487,0.011588,0.033633,0.22992,1
0.055261,0.018652,0.018488,0.011675,0.034292,0.01496,0.040944,0.22772,1
0.061367,0.018155,0.016997,0.01338,0.03798,0.015162,0.042624,0.17608,1
0.061367,0.018155,0.016997,0.01338,0.03798,0.015162,0.042624,0.17608,1
0.060717,0.018652,0.0162,0.013607,0.045218,0.01556,0.041192,0.16912,1
0.060717,0.018652,0.0162,0.013607,0.045218,0.01556,0.041192,0.16912,1
0.060717,0.018652,0.0162,0.013607,0.045218,0.01556,0.041192,0.16912,1
0.036421,0.014616,0.017176,0.014335,0.042648,0.01338,0.03125,0.13255,1
0.036421,0.014616,0.017176,0.014335,0.042648,0.01338,0.03125,0.13255,1
0.04837,0.016137,0.017057,0.013975,0.043311,0.013228,0.028024,0.14266,1
0.04837,0.016137,0.017057,0.013975,0.043311,0.013228,0.028024,0.14266,1
0.048706,0.016388,0.017411,0.012435,0.042815,0.012516,0.025436,0.14512,1
0.048706,0.016388,0.017411,0.012435,0.042815,0.012516,0.025436,0.14512,1
0.048706,0.016388,0.017411,0.012435,0.042815,0.012516,0.025436,0.14512,1
0.048706,0.016388,0.017411,0.012435,0.042815,0.012516,0.025436,0.14512,1
0.05127,0.015494,0.018761,0.0098821,0.037195,0.013073,0.03089,0.17429,1
0.05127,0.015494,0.018761,0.0098821,0.037195,0.013073,0.03089,0.17429,1
0.05127,0.015494,0.018761,0.0098821,0.037195,0.013073,0.03089,0.17429,1
0.05127,0.015494,0.018761,0.0098821,0.037195,0.013073,0.03089,0.17429,1
0.05127,0.015494,0.018761,0.0098821,0.037195,0.013073,0.03089,0.17429,1
0.038406,0.014823,0.017701,0.012837,0.037113,0.01315,0.032589,0.20791,1
0.040344,0.014616,0.020915,0.011411,0.039451,0.013456,0.029715,0.19141,1
0.058724,0.023953,0.033694,0.013902,0.061944,0.014616,0.038512,0.11593,1
0.053025,0.020866,0.028348,0.012019,0.053919,0.015296,0.039657,0.1084,1
0.063276,0.0394,0.042433,0.01315,0.052949,0.017643,0.043264,0.14246,1
0.063276,0.0394,0.042433,0.01315,0.052949,0.017643,0.043264,0.14246,1
0.069877,0.040369,0.042648,0.012758,0.057728,0.018266,0.042144,0.14369,1
0.069877,0.040369,0.042648,0.012758,0.057728,0.018266,0.042144,0.14369,1
0.062092,0.041707,0.045755,0.014048,0.057498,0.017585,0.037277,0.16134,1
0.062092,0.041707,0.045755,0.014048,0.057498,0.017585,0.037277,0.16134,1
0.064754,0.042385,0.044584,0.014546,0.065364,0.017527,0.035573,0.16611,1
0.064186,0.045554,0.0608,0.01338,0.065271,0.015819,0.037684,0.18233,1
0.064186,0.045554,0.0608,0.01338,0.065271,0.015819,0.037684,0.18233,1
0.048893,0.030123,0.05235,0.014616,0.060984,0.013755,0.036505,0.17227,1
0.048893,0.030123,0.05235,0.014616,0.060984,0.013755,0.036505,0.17227,1
0.060144,0.030988,0.05528,0.014823,0.055114,0.015428,0.035401,0.17678,1
0.062516,0.03339,0.056102,0.013532,0.054855,0.015229,0.036948,0.14149,1
0.062516,0.03339,0.056102,0.013532,0.054855,0.015229,0.036948,0.14149,1
0.055719,0.02657,0.036169,0.014192,0.055628,0.015296,0.041118,0.17924,1
0.05121,0.025635,0.034351,0.013829,0.061167,0.013228,0.038644,0.17982,1
0.05121,0.025635,0.034351,0.013829,0.061167,0.013228,0.038644,0.17982,1
0.064927,0.026301,0.030089,0.01227,0.061084,0.014406,0.039862,0.17618,1
0.064927,0.026301,0.030089,0.01227,0.061084,0.014406,0.039862,0.17618,1
0.061334,0.02106,0.025872,0.013755,0.065068,0.01412,0.038854,0.1829,1
0.061334,0.02106,0.025872,0.013755,0.065068,0.01412,0.038854,0.1829,1
0.060851,0.020719,0.027987,0.01227,0.060901,0.016756,0.03927,0.16858,1
0.060851,0.020719,0.027987,0.01227,0.060901,0.016756,0.03927,0.16858,1
0.065721,0.030157,0.040845,0.013228,0.057939,0.017116,0.037277,0.13358,1
0.070961,0.031509,0.043685,0.013681,0.05233,0.017352,0.033207,0.13852,1
0.070961,0.031509,0.043685,0.013681,0.05233,0.017352,0.033207,0.13852,1
0.060381,0.029852,0.043568,0.012916,0.050227,0.016997,0.032432,0.11688,1
0.060381,0.029852,0.043568,0.012916,0.050227,0.016997,0.032432,0.11688,1
0.057445,0.029954,0.042815,0.012435,0.054818,0.016137,0.033814,0.16918,1
0.057445,0.029954,0.042815,0.012435,0.054818,0.016137,0.033814,0.16918,1
0.05725,0.023219,0.033299,0.013829,0.057851,0.017872,0.035171,0.1647,1
0.05045,0.020963,0.029578,0.013532,0.054352,0.016756,0.03339,0.17477,1
0.047178,0.022911,0.030055,0.012758,0.060144,0.017176,0.039913,0.17814,1
0.040293,0.020963,0.029405,0.012837,0.068554,0.017294,0.037277,0.12929,1
0.040293,0.020963,0.029405,0.012837,0.068554,0.017294,0.037277,0.12929,1
0.040944,0.024457,0.054258,0.013829,0.065286,0.016511,0.041926,0.14922,1
0.040944,0.024457,0.054258,0.013829,0.065286,0.016511,0.041926,0.14922,1
0.044993,0.024206,0.054183,0.012019,0.068806,0.013829,0.04082,0.13415,1
0.052756,0.023044,0.05539,0.012916,0.066414,0.013456,0.038485,0.14275,1
0.054333,0.03199,0.063148,0.01227,0.054947,0.013829,0.042241,0.14868,1
0.054333,0.03199,0.063148,0.01227,0.054947,0.013829,0.042241,0.14868,1
0.056947,0.031606,0.066061,0.011762,0.059052,0.012597,0.041585,0.1453,1
0.056947,0.031606,0.066061,0.011762,0.059052,0.012597,0.041585,0.1453,1
0.064234,0.034734,0.047693,0.010578,0.060901,0.013228,0.038696,0.13598,1
0.064234,0.034734,0.047693,0.010578,0.060901,0.013228,0.038696,0.13598,1
0.060549,0.035545,0.049718,0.0093533,0.065021,0.014048,0.038696,0.13993,1
0.06326,0.029301,0.036028,0.010186,0.061334,0.01338,0.042433,0.16518,1
0.06326,0.029301,0.036028,0.010186,0.061334,0.01338,0.042433,0.16518,1
0.065644,0.028705,0.034114,0.011321,0.060884,0.015229,0.044947,0.17084,1
0.065644,0.028705,0.034114,0.011321,0.060884,0.015229,0.044947,0.17084,1
0.063019,0.028312,0.033176,0.011049,0.064455,0.016325,0.048181,0.17947,1
0.063019,0.028312,0.033176,0.011049,0.064455,0.016325,0.048181,0.17947,1
0.062059,0.030055,0.04542,0.012916,0.063916,0.015625,0.043708,0.18613,1
0.05709,0.027695,0.042933,0.013681,0.059258,0.01496,0.041732,0.18007,1
0.062938,0.027548,0.041217,0.013073,0.058184,0.015296,0.04004,0.16622,1
0.062938,0.027548,0.041217,0.013073,0.058184,0.015296,0.04004,0.16622,1
0.055993,0.025555,0.040845,0.013228,0.051448,0.012758,0.033146,0.15339,1
0.055993,0.025555,0.040845,0.013228,0.051448,0.012758,0.033146,0.15339,1
0.052447,0.018815,0.027695,0.012353,0.056319,0.012678,0.033146,0.12938,1
0.052447,0.018815,0.027695,0.012353,0.056319,0.012678,0.033146,0.12938,1
0.055408,0.018211,0.027474,0.012103,0.056481,0.014192,0.032744,0.10418,1
0.049266,0.017057,0.026837,0.01114,0.053901,0.01496,0.02944,0.10773,1
0.049266,0.017057,0.026837,0.01114,0.053901,0.01496,0.02944,0.10773,1
0.044263,0.020121,0.035084,0.0098821,0.062776,0.014892,0.026455,0.090638,1
0.044263,0.020121,0.035084,0.0098821,0.062776,0.014892,0.026455,0.090638,1
0.044698,0.021912,0.040318,0.0093533,0.065457,0.016573,0.028492,0.084276,1
0.044698,0.021912,0.040318,0.0093533,0.065457,0.016573,0.028492,0.084276,1
0.045465,0.022822,0.039938,0.0089076,0.060767,0.017057,0.026761,0.09093,1
0.051011,0.026913,0.041167,0.0092439,0.060834,0.016997,0.029057,0.098728,1
0.05049,0.028634,0.036727,0.011588,0.060313,0.018433,0.032401,0.11362,1
0.051999,0.027805,0.036365,0.011588,0.064943,0.018266,0.033146,0.1159,1
0.050024,0.028456,0.046065,0.014048,0.062402,0.01645,0.03441,0.14547,1
0.050024,0.028456,0.046065,0.014048,0.062402,0.01645,0.03441,0.14547,1
0.043871,0.026685,0.050227,0.01556,0.061367,0.017176,0.036449,0.16047,1
0.043871,0.026685,0.050227,0.01556,0.061367,0.017176,0.036449,0.16047,1
0.044056,0.024499,0.05051,0.014616,0.059481,0.016756,0.038749,0.17001,1
0.042743,0.022999,0.052833,0.014335,0.052833,0.014892,0.035084,0.16496,1
0.049122,0.033542,0.037085,0.013228,0.055774,0.030358,0.035887,0.14767,1
0.049122,0.033542,0.037085,0.013228,0.055774,0.030358,0.035887,0.14767,1
0.048997,0.032085,0.031217,0.012995,0.053236,0.030291,0.033421,0.14248,1
0.043099,0.032526,0.030923,0.01338,0.058044,0.030425,0.030625,0.15185,1
0.043099,0.032526,0.030923,0.01338,0.058044,0.030425,0.030625,0.15185,1
0.044194,0.02067,0.024206,0.013073,0.057161,0.030592,0.031702,0.15793,1
0.044194,0.02067,0.024206,0.013073,0.057161,0.030592,0.031702,0.15793,1
0.040444,0.01645,0.025073,0.012353,0.058237,0.017643,0.029092,0.15501,1
0.040444,0.01645,0.025073,0.012353,0.058237,0.017643,0.029092,0.15501,1
0.039167,0.014192,0.025476,0.012597,0.056876,0.012516,0.029749,0.14259,1
0.039167,0.014192,0.025476,0.012597,0.056876,0.012516,0.029749,0.14259,1
0.037304,0.018652,0.032806,0.012678,0.053064,0.011321,0.02992,0.13876,1
0.039115,0.020472,0.032682,0.014335,0.046219,0.010384,0.028277,0.14409,1
0.039115,0.020472,0.032682,0.014335,0.046219,0.010384,0.028277,0.14409,1
0.04533,0.020472,0.033573,0.014192,0.048223,0.013681,0.029336,0.13544,1
0.04533,0.020472,0.033573,0.014192,0.048223,0.013681,0.029336,0.13544,1
0.047156,0.021679,0.033573,0.014546,0.054445,0.015362,0.035344,0.1427,1
0.050951,0.025516,0.051783,0.016325,0.060161,0.016074,0.033994,0.14453,1
0.050951,0.025516,0.051783,0.016325,0.060161,0.016074,0.033994,0.14453,1
0.055974,0.021585,0.047178,0.014616,0.060532,0.017116,0.033482,0.1404,1
0.055974,0.021585,0.047178,0.014616,0.060532,0.017116,0.033482,0.1404,1
0.055974,0.021585,0.047178,0.014616,0.060532,0.017116,0.033482,0.1404,1
0.054743,0.021204,0.045621,0.014264,0.06173,0.016074,0.032306,0.13984,1
0.054743,0.021204,0.045621,0.014264,0.06173,0.016074,0.032306,0.13984,1
0.052388,0.017411,0.019505,0.013829,0.05264,0.017815,0.027362,0.14501,1
0.046832,0.018211,0.017872,0.01338,0.050931,0.017758,0.031054,0.16314,1
0.046832,0.018211,0.017872,0.01338,0.050931,0.017758,0.031054,0.16314,1
0.043193,0.019453,0.024248,0.01338,0.05314,0.016695,0.029749,0.17103,1
0.043193,0.019453,0.024248,0.01338,0.05314,0.016695,0.029749,0.17103,1
0.041999,0.02454,0.032401,0.01227,0.053844,0.015229,0.029405,0.17613,1
0.041999,0.02454,0.032401,0.01227,0.053844,0.015229,0.029405,0.17613,1
0.030358,0.024164,0.03199,0.013681,0.054594,0.013975,0.029612,0.17233,1
0.030358,0.024164,0.03199,0.013681,0.054594,0.013975,0.029612,0.17233,1
0.049554,0.023782,0.03199,0.01338,0.055058,0.014406,0.027621,0.13407,1
0.05422,0.022999,0.03125,0.013456,0.056373,0.015625,0.03019,0.12827,1
0.05422,0.022999,0.03125,0.013456,0.056373,0.015625,0.03019,0.12827,1
0.057072,0.018211,0.023739,0.012758,0.055132,0.016695,0.035545,0.13715,1
0.057072,0.018211,0.023739,0.012758,0.055132,0.016695,0.035545,0.13715,1
0.057072,0.018211,0.023739,0.012758,0.055132,0.016695,0.035545,0.13715,1
0.0613,0.018543,0.02361,0.013228,0.058079,0.01645,0.037495,0.16576,1
0.055335,0.020121,0.023263,0.014685,0.054688,0.018707,0.044125,0.17198,1
0.0764,0.020915,0.018597,0.014048,0.064739,0.019816,0.060784,0.20569,1
0.075003,0.02391,0.021012,0.017176,0.062581,0.022822,0.064487,0.20091,1
0.075003,0.02391,0.021012,0.017176,0.062581,0.022822,0.064487,0.20091,1
0.075125,0.028024,0.02657,0.017527,0.067703,0.056409,0.061582,0.19308,1
0.075125,0.028024,0.02657,0.017527,0.067703,0.056409,0.061582,0.19308,1
0.080321,0.030021,0.034084,0.016877,0.062157,0.058411,0.059873,0.18685,1
0.080321,0.030021,0.034084,0.016877,0.062157,0.058411,0.059873,0.18685,1
0.065021,0.025674,0.033663,0.014192,0.06675,0.059207,0.053655,0.18552,1
0.065021,0.025674,0.033663,0.014192,0.06675,0.059207,0.053655,0.18552,1
0.062986,0.025154,0.031767,0.014048,0.067538,0.059086,0.052408,0.18905,1
0.064281,0.023481,0.032713,0.011762,0.068688,0.043545,0.054743,0.17253,1
0.064281,0.023481,0.032713,0.011762,0.068688,0.043545,0.054743,0.17253,1
0.053427,0.020621,0.02992,0.011848,0.063132,0.023953,0.037576,0.13105,1
0.053427,0.020621,0.02992,0.011848,0.063132,0.023953,0.037576,0.13105,1
0.050631,0.017411,0.024623,0.011762,0.065891,0.022051,0.039708,0.1348,1
0.049287,0.015494,0.025033,0.013681,0.070616,0.019401,0.038565,0.10965,1
0.049287,0.015494,0.025033,0.013681,0.070616,0.019401,0.038565,0.10965,1
0.057232,0.016263,0.032022,0.013304,0.071858,0.019609,0.038247,0.1136,1
0.057232,0.016263,0.032022,0.013304,0.071858,0.019609,0.038247,0.1136,1
0.057232,0.016263,0.032022,0.013304,0.071858,0.019609,0.038247,0.1136,1
0.051763,0.018815,0.031477,0.014685,0.067236,0.018042,0.034084,0.15612,1
0.051763,0.018815,0.031477,0.014685,0.067236,0.018042,0.034084,0.15612,1
0.049039,0.018488,0.032495,0.013073,0.065052,0.018488,0.033844,0.15438,1
0.049039,0.018488,0.032495,0.013073,0.065052,0.018488,0.033844,0.15438,1
0.051527,0.018266,0.031638,0.013456,0.06672,0.020172,0.040795,0.1623,1
0.051527,0.018266,0.031638,0.013456,0.06672,0.020172,0.040795,0.1623,1
0.050751,0.017701,0.027101,0.013902,0.067342,0.025674,0.049266,0.16259,1
0.050751,0.017701,0.027101,0.013902,0.067342,0.025674,0.049266,0.16259,1
0.050771,0.017116,0.022732,0.012758,0.063868,0.027585,0.048831,0.1578,1
0.050771,0.017116,0.022732,0.012758,0.063868,0.027585,0.048831,0.1578,1
0.0555,0.017929,0.022235,0.010674,0.063293,0.02491,0.046832,0.12126,1
0.055683,0.018042,0.025832,0.012837,0.070486,0.042933,0.045532,0.12747,1
0.055683,0.018042,0.025832,0.012837,0.070486,0.042933,0.045532,0.12747,1
0.055683,0.018042,0.025832,0.012837,0.070486,0.042933,0.045532,0.12747,1
0.04939,0.019243,0.031445,0.012187,0.072056,0.048789,0.034558,0.16944,1
0.048496,0.019764,0.030758,0.012837,0.069629,0.045821,0.035171,0.19593,1
0.048496,0.019764,0.030758,0.012837,0.069629,0.045821,0.035171,0.19593,1
0.042552,0.019867,0.032495,0.015162,0.066214,0.048622,0.041118,0.20541,1
0.042552,0.019867,0.032495,0.015162,0.066214,0.048622,0.041118,0.20541,1
0.048202,0.018761,0.030425,0.013532,0.07173,0.047436,0.04052,0.19803,1
0.048202,0.018761,0.030425,0.013532,0.07173,0.047436,0.04052,0.19803,1
0.049513,0.019505,0.021866,0.013532,0.073454,0.03867,0.04317,0.19787,1
0.049513,0.019505,0.021866,0.013532,0.073454,0.03867,0.04317,0.19787,1
0.047092,0.025872,0.039089,0.012995,0.067342,0.032775,0.043755,0.17994,1
0.047092,0.025872,0.039089,0.012995,0.067342,0.032775,0.043755,0.17994,1
0.045666,0.025832,0.039141,0.012516,0.073426,0.030392,0.037222,0.18453,1
0.045666,0.025832,0.039141,0.012516,0.073426,0.030392,0.037222,0.18453,1
0.045554,0.025315,0.040141,0.0098821,0.078515,0.030492,0.036644,0.1867,1
0.044902,0.027325,0.041853,0.01114,0.079813,0.032868,0.034351,0.1849,1
0.044902,0.027325,0.041853,0.01114,0.079813,0.032868,0.034351,0.1849,1
0.045038,0.033724,0.058132,0.011675,0.072098,0.03167,0.033934,0.19062,1
0.045038,0.033724,0.058132,0.011675,0.072098,0.03167,0.033934,0.19062,1
0.047393,0.029057,0.051881,0.014546,0.066061,0.032053,0.040845,0.18378,1
0.047393,0.029057,0.051881,0.014546,0.066061,0.032053,0.040845,0.18378,1
0.051071,0.041634,0.065411,0.01569,0.062598,0.03447,0.040243,0.19678,1
0.042337,0.041192,0.066061,0.016573,0.067943,0.034024,0.040394,0.18525,1
0.042337,0.041192,0.066061,0.016573,0.067943,0.034024,0.040394,0.18525,1
0.060884,0.037765,0.051547,0.017116,0.072338,0.03089,0.044538,0.18927,1
0.060884,0.037765,0.051547,0.017116,0.072338,0.03089,0.044538,0.18927,1
0.060127,0.037359,0.051547,0.016634,0.071489,0.030625,0.044698,0.18557,1
0.060127,0.037359,0.051547,0.016634,0.071489,0.030625,0.044698,0.18557,1
0.066902,0.024951,0.042047,0.01412,0.076374,0.029749,0.051369,0.20287,1
0.063868,0.026685,0.042361,0.013532,0.072028,0.029092,0.054145,0.18962,1
0.063868,0.026685,0.042361,0.013532,0.072028,0.029092,0.054145,0.18962,1
0.069775,0.029681,0.042168,0.013681,0.07526,0.027695,0.051428,0.22198,1
0.058079,0.027026,0.042672,0.012758,0.0614,0.027987,0.048517,0.23117,1
0.058079,0.027026,0.042672,0.012758,0.0614,0.027987,0.048517,0.23117,1
0.067084,0.027288,0.041536,0.012597,0.06425,0.028563,0.048033,0.21253,1
0.067084,0.027288,0.041536,0.012597,0.06425,0.028563,0.048033,0.21253,1
0.072211,0.026301,0.042791,0.012103,0.068688,0.032651,0.03927,0.20321,1
0.072996,0.022732,0.027399,0.012837,0.074853,0.032589,0.037277,0.16764,1
0.072996,0.022732,0.027399,0.012837,0.074853,0.032589,0.037277,0.16764,1
0.07273,0.022866,0.026185,0.012353,0.076147,0.033053,0.043075,0.18002,1
0.07273,0.022866,0.026185,0.012353,0.076147,0.033053,0.043075,0.18002,1
0.066826,0.024332,0.028204,0.012837,0.076334,0.03563,0.04447,0.18145,1
0.066826,0.024332,0.028204,0.012837,0.076334,0.03563,0.04447,0.18145,1
0.052447,0.026146,0.044424,0.014406,0.081926,0.029612,0.040116,0.19488,1
0.052447,0.026146,0.044424,0.014406,0.081926,0.029612,0.040116,0.19488,1
0.060817,0.027548,0.049821,0.014685,0.079889,0.028917,0.037195,0.16693,1
0.060817,0.027548,0.049821,0.014685,0.079889,0.028917,0.037195,0.16693,1
0.062516,0.028096,0.049431,0.01569,0.078825,0.031799,0.03543,0.19627,1
0.068688,0.031767,0.063325,0.015362,0.084071,0.037467,0.035315,0.20664,1
0.068688,0.031767,0.063325,0.015362,0.084071,0.037467,0.035315,0.20664,1
0.068865,0.030625,0.053083,0.014823,0.080712,0.043708,0.038033,0.20488,1
0.068865,0.030625,0.053083,0.014823,0.080712,0.043708,0.038033,0.20488,1
0.068851,0.029715,0.049759,0.01569,0.078773,0.044447,0.042862,0.19498,1
0.068851,0.029715,0.049759,0.01569,0.078773,0.044447,0.042862,0.19498,1
0.064345,0.027841,0.046395,0.014192,0.08384,0.047607,0.039836,0.19993,1
0.054277,0.021348,0.02228,0.014335,0.077694,0.051309,0.046766,0.2086,1
0.054277,0.021348,0.02228,0.014335,0.077694,0.051309,0.046766,0.2086,1
0.055974,0.020866,0.023995,0.014546,0.06979,0.045977,0.051901,0.2182,1
0.052524,0.022097,0.030358,0.01227,0.062272,0.044102,0.050671,0.24387,1
0.052524,0.022097,0.030358,0.01227,0.062272,0.044102,0.050671,0.24387,1
0.049616,0.022372,0.029783,0.012516,0.060499,0.03927,0.0498,0.23274,1
0.049616,0.022372,0.029783,0.012516,0.060499,0.03927,0.0498,0.23274,1
0.053598,0.023868,0.030492,0.015947,0.058828,0.034763,0.048391,0.27138,1
0.053598,0.023868,0.030492,0.015947,0.058828,0.034763,0.048391,0.27138,1
0.052544,0.023044,0.030791,0.015296,0.066917,0.033146,0.04324,0.27156,1
0.049101,0.019816,0.023044,0.015494,0.064059,0.031958,0.041217,0.27395,1
0.049101,0.019816,0.023044,0.015494,0.064059,0.031958,0.041217,0.27395,1
0.048159,0.017352,0.021012,0.015819,0.067312,0.038033,0.048391,0.25434,1
0.048159,0.017352,0.021012,0.015819,0.067312,0.038033,0.048391,0.25434,1
0.04401,0.015229,0.022372,0.01412,0.081303,0.039759,0.048033,0.23411,1
0.049308,0.016137,0.02454,0.014754,0.076374,0.040944,0.044033,0.23085,1
0.049308,0.016137,0.02454,0.014754,0.076374,0.040944,0.044033,0.23085,1
0.05621,0.017469,0.022143,0.014406,0.073565,0.039734,0.043522,0.22128,1
0.057551,0.018976,0.024664,0.01412,0.072814,0.037953,0.034351,0.20528,1
0.067988,0.022643,0.027063,0.014192,0.075973,0.035084,0.043146,0.25314,1
0.067988,0.022643,0.027063,0.014192,0.075973,0.035084,0.043146,0.25314,1
0.06716,0.023524,0.040141,0.013456,0.070168,0.031412,0.043217,0.23013,1
0.062451,0.021912,0.040065,0.012758,0.064864,0.031926,0.043004,0.22587,1
0.062451,0.021912,0.040065,0.012758,0.064864,0.031926,0.043004,0.22587,1
0.060364,0.020222,0.041585,0.014335,0.064471,0.027474,0.043917,0.26171,1
0.060364,0.020222,0.041585,0.014335,0.064471,0.027474,0.043917,0.26171,1
0.052038,0.019609,0.04394,0.013073,0.072548,0.023739,0.046021,0.23094,1
0.052038,0.019609,0.04394,0.013073,0.072548,0.023739,0.046021,0.23094,1
0.057144,0.023219,0.033633,0.013304,0.072155,0.034292,0.056083,0.25882,1
0.057144,0.023219,0.033633,0.013304,0.072155,0.034292,0.056083,0.25882,1
0.054929,0.023263,0.031799,0.012187,0.074799,0.033115,0.05504,0.24215,1
0.054929,0.023263,0.031799,0.012187,0.074799,0.033115,0.05504,0.24215,1
0.055206,0.026493,0.030824,0.013304,0.074717,0.032149,0.046043,0.1944,1
0.054202,0.025674,0.026837,0.01315,0.064691,0.032651,0.047156,0.19981,1
0.054202,0.025674,0.026837,0.01315,0.064691,0.032651,0.047156,0.19981,1
0.054202,0.025674,0.026837,0.01315,0.064691,0.032651,0.047156,0.19981,1
0.047178,0.021959,0.034909,0.013228,0.060834,0.025436,0.040595,0.16538,1
0.045644,0.02361,0.039503,0.013975,0.054688,0.023567,0.039503,0.18828,1
0.045644,0.02361,0.039503,0.013975,0.054688,0.023567,0.039503,0.18828,1
0.050731,0.034939,0.046307,0.016263,0.083962,0.021156,0.06033,0.22256,1
0.050207,0.023567,0.025356,0.013607,0.08994,0.024623,0.057939,0.19298,1
0.050207,0.023567,0.025356,0.013607,0.08994,0.024623,0.057939,0.19298,1
0.056427,0.032275,0.026417,0.013755,0.085057,0.022866,0.053083,0.16941,1
0.056427,0.032275,0.026417,0.013755,0.085057,0.022866,0.053083,0.16941,1
0.056427,0.032275,0.026417,0.013755,0.085057,0.022866,0.053083,0.16941,1
0.055095,0.049369,0.067958,0.016011,0.069629,0.017235,0.049266,0.23434,1
0.055095,0.049369,0.067958,0.016011,0.069629,0.017235,0.049266,0.23434,1
0.051051,0.05194,0.074253,0.016011,0.079953,0.017057,0.04939,0.22657,1
0.051051,0.05194,0.074253,0.016011,0.079953,0.017057,0.04939,0.22657,1
0.055573,0.051131,0.074088,0.015428,0.090941,0.016263,0.05233,0.21936,1
0.055573,0.051131,0.074088,0.015428,0.090941,0.016263,0.05233,0.21936,1
0.065675,0.050771,0.075906,0.016388,0.09151,0.018433,0.048538,0.2269,1
0.068851,0.038958,0.061944,0.014685,0.093934,0.017758,0.045487,0.21823,1
0.068851,0.038958,0.061944,0.014685,0.093934,0.017758,0.045487,0.21823,1
0.068851,0.038958,0.061944,0.014685,0.093934,0.017758,0.045487,0.21823,1
0.065333,0.045577,0.063485,0.0162,0.088204,0.020768,0.043122,0.23021,1
0.064707,0.040495,0.075165,0.0162,0.09065,0.022051,0.041143,0.2424,1
0.064707,0.040495,0.075165,0.0162,0.09065,0.022051,0.041143,0.2424,1
0.061001,0.038801,0.067883,0.013902,0.082087,0.021156,0.039989,0.21396,1
0.061001,0.038801,0.067883,0.013902,0.082087,0.021156,0.039989,0.21396,1
0.062922,0.03927,0.067462,0.014823,0.073565,0.021204,0.040419,0.22051,1
0.062922,0.03927,0.067462,0.014823,0.073565,0.021204,0.040419,0.22051,1
0.062922,0.03927,0.067462,0.014823,0.073565,0.021204,0.040419,0.22051,1
0.062922,0.03927,0.067462,0.014823,0.073565,0.021204,0.040419,0.22051,1
0.068998,0.02595,0.058585,0.017986,0.080016,0.021819,0.045577,0.24363,1
0.068998,0.02595,0.058585,0.017986,0.080016,0.021819,0.045577,0.24363,1
0.068033,0.030692,0.065271,0.017758,0.097244,0.022462,0.057869,0.28251,1
0.068033,0.030692,0.065271,0.017758,0.097244,0.022462,0.057869,0.28251,1
0.061878,0.028312,0.065146,0.016877,0.097672,0.0213,0.055151,0.2583,1
0.061878,0.028312,0.065146,0.016877,0.097672,0.0213,0.055151,0.2583,1
0.061878,0.028312,0.065146,0.016877,0.097672,0.0213,0.055151,0.2583,1
0.055482,0.032589,0.074267,0.016877,0.085463,0.020719,0.06135,0.22547,1
0.055482,0.032589,0.074267,0.016877,0.085463,0.020719,0.06135,0.22547,1
0.060599,0.033238,0.061234,0.015095,0.088123,0.019867,0.059822,0.22654,1
0.060599,0.033238,0.061234,0.015095,0.088123,0.019867,0.059822,0.22654,1
0.06219,0.0352,0.062157,0.015625,0.073537,0.018266,0.04782,0.21179,1
0.06219,0.0352,0.062157,0.015625,0.073537,0.018266,0.04782,0.21179,1
0.06219,0.0352,0.062157,0.015625,0.073537,0.018266,0.04782,0.21179,1
0.06219,0.0352,0.062157,0.015625,0.073537,0.018266,0.04782,0.21179,1
0.06219,0.0352,0.062157,0.015625,0.073537,0.018266,0.04782,0.21179,1
0.059396,0.04394,0.050611,0.015028,0.086138,0.019764,0.036505,0.19594,1
0.059396,0.04394,0.050611,0.015028,0.086138,0.019764,0.036505,0.19594,1
0.047778,0.033238,0.053025,0.01919,0.076799,0.022143,0.039657,0.20245,1
0.047778,0.033238,0.053025,0.01919,0.076799,0.022143,0.039657,0.20245,1
0.047778,0.033238,0.053025,0.01919,0.076799,0.022143,0.039657,0.20245,1
0.047778,0.033238,0.053025,0.01919,0.076799,0.022143,0.039657,0.20245,1
0.05055,0.035113,0.047842,0.0213,0.08295,0.020222,0.055335,0.25266,1
0.056625,0.034676,0.039964,0.019764,0.086245,0.020222,0.054352,0.2465,1
0.056625,0.034676,0.039964,0.019764,0.086245,0.020222,0.054352,0.2465,1
0.053179,0.037899,0.056102,0.016011,0.08295,0.018266,0.061433,0.2827,1
0.053179,0.037899,0.056102,0.016011,0.08295,0.018266,0.061433,0.2827,1
0.051071,0.044079,0.054855,0.017585,0.074513,0.018322,0.054799,0.28966,1
0.051071,0.044079,0.054855,0.017585,0.074513,0.018322,0.054799,0.28966,1
0.048997,0.040167,0.05057,0.01645,0.066963,0.015362,0.054426,0.25777,1
0.048997,0.040167,0.05057,0.01645,0.066963,0.015362,0.054426,0.25777,1
0.04447,0.039759,0.049821,0.01569,0.06941,0.016756,0.048391,0.20908,1
0.04447,0.039759,0.049821,0.01569,0.06941,0.016756,0.048391,0.20908,1
0.048475,0.038326,0.031477,0.014335,0.073703,0.019137,0.044447,0.17578,1
0.048475,0.038326,0.031477,0.014335,0.073703,0.019137,0.044447,0.17578,1
0.048747,0.027362,0.035459,0.013304,0.076653,0.019083,0.043801,0.21594,1
0.048747,0.027362,0.035459,0.013304,0.076653,0.019083,0.043801,0.21594,1
0.06065,0.036028,0.048852,0.013681,0.079301,0.018488,0.049184,0.20751,1
0.06065,0.036028,0.048852,0.013681,0.079301,0.018488,0.049184,0.20751,1
0.061317,0.036113,0.048138,0.015229,0.06845,0.016695,0.047264,0.29505,1
0.061317,0.036113,0.048138,0.015229,0.06845,0.016695,0.047264,0.29505,1
0.058637,0.035026,0.048685,0.015819,0.068138,0.018923,0.047905,0.31456,1
0.082372,0.038087,0.06033,0.015883,0.089793,0.020222,0.055021,0.30413,1
0.082372,0.038087,0.06033,0.015883,0.089793,0.020222,0.055021,0.30413,1
0.079557,0.045241,0.044993,0.01496,0.092163,0.019137,0.054743,0.30255,1
0.079557,0.045241,0.044993,0.01496,0.092163,0.019137,0.054743,0.30255,1
0.086961,0.049596,0.056373,0.016074,0.10657,0.020071,0.061101,0.2361,1
0.086961,0.049596,0.056373,0.016074,0.10657,0.020071,0.061101,0.2361,1
0.08766,0.046745,0.066214,0.014264,0.10873,0.018488,0.065239,0.23549,1
0.08766,0.046745,0.066214,0.014264,0.10873,0.018488,0.065239,0.23549,1
0.068033,0.047329,0.057108,0.014685,0.096351,0.018433,0.060984,0.23978,1
0.068033,0.047329,0.057108,0.014685,0.096351,0.018433,0.060984,0.23978,1
0.069556,0.050004,0.063196,0.015162,0.081303,0.020121,0.060144,0.22061,1
0.069556,0.050004,0.063196,0.015162,0.081303,0.020121,0.060144,0.22061,1
0.066168,0.036672,0.056768,0.015028,0.084155,0.020522,0.043146,0.19778,1
0.066168,0.036672,0.056768,0.015028,0.084155,0.020522,0.043146,0.19778,1
0.066168,0.036672,0.056768,0.015028,0.084155,0.020522,0.043146,0.19778,1
0.066168,0.036672,0.056768,0.015028,0.084155,0.020522,0.043146,0.19778,1
0.058706,0.044355,0.05053,0.016937,0.074239,0.020071,0.046745,0.17573,1
0.058706,0.044355,0.05053,0.016937,0.074239,0.020071,0.046745,0.17573,1
0.064281,0.045128,0.052311,0.016756,0.072744,0.020121,0.04506,0.17253,1
0.073896,0.045443,0.049943,0.017116,0.082236,0.022372,0.049142,0.19883,1
0.073896,0.045443,0.049943,0.017116,0.082236,0.022372,0.049142,0.19883,1
0.074948,0.043052,0.052717,0.016877,0.089327,0.021726,0.045151,0.18689,1
0.074948,0.043052,0.052717,0.016877,0.089327,0.021726,0.045151,0.18689,1
0.073551,0.042719,0.052038,0.01645,0.077969,0.022553,0.043894,0.18249,1
0.073551,0.042719,0.052038,0.01645,0.077969,0.022553,0.043894,0.18249,1
0.071688,0.032369,0.045844,0.016137,0.095927,0.021866,0.047479,0.19281,1
0.071688,0.032369,0.045844,0.016137,0.095927,0.021866,0.047479,0.19281,1
0.065052,0.029578,0.041805,0.016997,0.098471,0.024164,0.041683,0.18916,1
0.065052,0.029578,0.041805,0.016997,0.098471,0.024164,0.041683,0.18916,1
0.052775,0.025396,0.034529,0.016997,0.11008,0.02002,0.041093,0.20255,1
0.052775,0.025396,0.034529,0.016997,0.11008,0.02002,0.041093,0.20255,1
0.05192,0.024705,0.028952,0.015755,0.10851,0.018597,0.048475,0.20519,1
0.049452,0.033904,0.039063,0.016011,0.108,0.019661,0.047457,0.20545,1
0.049452,0.033904,0.039063,0.016011,0.108,0.019661,0.047457,0.20545,1
0.05592,0.035257,0.061681,0.014685,0.099794,0.02002,0.049059,0.19586,1
0.05592,0.035257,0.061681,0.014685,0.099794,0.02002,0.049059,0.19586,1
0.05592,0.035257,0.061681,0.014685,0.099794,0.02002,0.049059,0.19586,1
0.062043,0.036,0.061928,0.012837,0.096245,0.016137,0.052155,0.20732,1
0.060465,0.035716,0.061516,0.01496,0.088423,0.017643,0.051901,0.2243,1
0.060465,0.035716,0.061516,0.01496,0.088423,0.017643,0.051901,0.2243,1
0.059104,0.061829,0.078502,0.014406,0.081115,0.020222,0.054688,0.20646,1
0.059104,0.061829,0.078502,0.014406,0.081115,0.020222,0.054688,0.20646,1
0.064565,0.055169,0.056983,0.013902,0.084806,0.022235,0.054333,0.23686,1
0.064565,0.055169,0.056983,0.013902,0.084806,0.022235,0.054333,0.23686,1
0.063932,0.058654,0.066091,0.013228,0.081503,0.021912,0.055811,0.23782,1
0.063932,0.058654,0.066091,0.013228,0.081503,0.021912,0.055811,0.23782,1
0.060549,0.059788,0.066948,0.011675,0.086351,0.023088,0.055058,0.20303,1
0.060549,0.059788,0.066948,0.011675,0.086351,0.023088,0.055058,0.20303,1
0.071075,0.059086,0.064123,0.014264,0.086739,0.024037,0.054743,0.21119,1
0.073523,0.037113,0.048075,0.014616,0.082766,0.02491,0.056983,0.2319,1
0.073523,0.037113,0.048075,0.014616,0.082766,0.02491,0.056983,0.2319,1
0.066948,0.046483,0.044607,0.016137,0.084505,0.022999,0.057516,0.23228,1
0.064786,0.04067,0.027362,0.016937,0.080863,0.020571,0.046897,0.21524,1
0.064786,0.04067,0.027362,0.016937,0.080863,0.020571,0.046897,0.21524,1
0.058167,0.042505,0.046395,0.015819,0.08526,0.023782,0.05125,0.23378,1
0.058167,0.042505,0.046395,0.015819,0.08526,0.023782,0.05125,0.23378,1
0.055591,0.044789,0.051606,0.013902,0.091754,0.020621,0.048768,0.20369,1
0.058411,0.044857,0.055883,0.014616,0.088618,0.01919,0.041634,0.20182,1
0.058411,0.044857,0.055883,0.014616,0.088618,0.01919,0.041634,0.20182,1
0.058272,0.033754,0.060246,0.013755,0.08164,0.021252,0.04542,0.21306,1
0.058272,0.033754,0.060246,0.013755,0.08164,0.021252,0.04542,0.21306,1
0.05709,0.048412,0.061961,0.015296,0.084421,0.023739,0.049657,0.22144,1
0.05709,0.048412,0.061961,0.015296,0.084421,0.023739,0.049657,0.22144,1
0.059018,0.04551,0.052602,0.015095,0.07624,0.023351,0.046592,0.21754,1
0.059018,0.04551,0.052602,0.015095,0.07624,0.023351,0.046592,0.21754,1
0.058324,0.043894,0.050611,0.017643,0.075422,0.027101,0.051822,0.20424,1
0.058637,0.046962,0.056156,0.015755,0.081102,0.025911,0.05373,0.19549,1
0.058637,0.046962,0.056156,0.015755,0.081102,0.025911,0.05373,0.19549,1
0.056983,0.031412,0.054706,0.014754,0.077576,0.023044,0.051606,0.18909,1
0.056983,0.031412,0.054706,0.014754,0.077576,0.023044,0.051606,0.18909,1
0.032306,0.025114,0.026988,0.0092439,0.014546,0.014406,0.039322,0.15112,2
0.026532,0.017701,0.026339,0.0086762,0.014685,0.012678,0.043004,0.22391,2
0.026532,0.017701,0.026339,0.0086762,0.014685,0.012678,0.043004,0.22391,2
0.028132,0.017352,0.027138,0.012019,0.012597,0.013755,0.040994,0.25746,2
0.030923,0.023782,0.025396,0.012019,0.012678,0.013607,0.041732,0.22605,2
0.030923,0.023782,0.025396,0.012019,0.012678,0.013607,0.041732,0.22605,2
0.029954,0.023953,0.025832,0.011321,0.013975,0.014823,0.031862,0.21857,2
0.029954,0.023953,0.025832,0.011321,0.013975,0.014823,0.031862,0.21857,2
0.029954,0.025872,0.030123,0.011934,0.014823,0.015494,0.032557,0.22358,2
0.029954,0.025872,0.030123,0.011934,0.014823,0.015494,0.032557,0.22358,2
0.029954,0.025872,0.030123,0.011934,0.014823,0.015494,0.032557,0.22358,2
0.029954,0.025872,0.030123,0.011934,0.014823,0.015494,0.032557,0.22358,2
0.029954,0.025872,0.030123,0.011934,0.014823,0.015494,0.032557,0.22358,2
0.032369,0.024746,0.027437,0.012353,0.013902,0.015755,0.044447,0.23631,2
0.031021,0.023739,0.027026,0.013681,0.014406,0.015296,0.046657,0.23648,2
0.031021,0.023739,0.027026,0.013681,0.014406,0.015296,0.046657,0.23648,2
0.031021,0.023739,0.027026,0.013681,0.014406,0.015296,0.046657,0.23648,2
0.031021,0.023739,0.027026,0.013681,0.014406,0.015296,0.046657,0.23648,2
0.031767,0.02657,0.02491,0.011321,0.012916,0.013607,0.049018,0.23706,2
0.031767,0.02657,0.02491,0.011321,0.012916,0.013607,0.049018,0.23706,2
0.031767,0.02657,0.02491,0.011321,0.012916,0.013607,0.049018,0.23706,2
0.030021,0.020719,0.024415,0.010674,0.014264,0.014476,0.038113,0.19155,2
0.030021,0.020719,0.024415,0.010674,0.014264,0.014476,0.038113,0.19155,2
0.033023,0.020768,0.024705,0.010186,0.014048,0.016263,0.042767,0.19225,2
0.034203,0.022005,0.02361,0.011321,0.013975,0.017057,0.047735,0.20885,2
0.03447,0.014616,0.022143,0.012187,0.015296,0.017057,0.050429,0.21882,2
0.03447,0.014616,0.022143,0.012187,0.015296,0.017057,0.050429,0.21882,2
0.035487,0.021912,0.025516,0.013228,0.016388,0.017235,0.058079,0.24991,2
0.035487,0.021912,0.025516,0.013228,0.016388,0.017235,0.058079,0.24991,2
0.033023,0.021912,0.02806,0.012995,0.015819,0.015095,0.054389,0.24251,2
0.033023,0.021912,0.02806,0.012995,0.015819,0.015095,0.054389,0.24251,2
0.029715,0.022189,0.023654,0.012019,0.015883,0.014192,0.050248,0.23006,2
0.032589,0.022598,0.022911,0.012678,0.016137,0.014754,0.05129,0.24128,2
0.032589,0.022598,0.022911,0.012678,0.016137,0.014754,0.05129,0.24128,2
0.032589,0.022598,0.022911,0.012678,0.016137,0.014754,0.05129,0.24128,2
0.036755,0.022326,0.022777,0.012758,0.015229,0.01412,0.050651,0.26584,2
0.035688,0.014546,0.017352,0.012516,0.014823,0.012103,0.042481,0.22046,2
0.035688,0.014546,0.017352,0.012516,0.014823,0.012103,0.042481,0.22046,2
0.036056,0.01496,0.021395,0.013073,0.016074,0.01338,0.040394,0.22267,2
0.036056,0.01496,0.021395,0.013073,0.016074,0.01338,0.040394,0.22267,2
0.036056,0.01496,0.021395,0.013073,0.016074,0.01338,0.040394,0.22267,2
0.036056,0.01496,0.021395,0.013073,0.016074,0.01338,0.040394,0.22267,2
0.028024,0.013228,0.022777,0.011411,0.015028,0.01338,0.037331,0.20338,2
0.028024,0.013228,0.022777,0.011411,0.015028,0.01338,0.037331,0.20338,2
0.028024,0.013228,0.022777,0.011411,0.015028,0.01338,0.037331,0.20338,2
0.028024,0.013228,0.022777,0.011411,0.015028,0.01338,0.037331,0.20338,2
0.029543,0.012187,0.023394,0.0099845,0.012678,0.013532,0.042815,0.18521,2
0.029543,0.012187,0.023394,0.0099845,0.012678,0.013532,0.042815,0.18521,2
0.034676,0.018042,0.020323,0.011321,0.013073,0.017294,0.069993,0.24343,2
0.034676,0.018042,0.020323,0.011321,0.013073,0.017294,0.069993,0.24343,2
0.034676,0.018042,0.020323,0.011321,0.013073,0.017294,0.069993,0.24343,2
0.034676,0.018042,0.020323,0.011321,0.013073,0.017294,0.069993,0.24343,2
0.034676,0.018042,0.020323,0.011321,0.013073,0.017294,0.069993,0.24343,2
0.034676,0.018042,0.020323,0.011321,0.013073,0.017294,0.069993,0.24343,2
0.037872,0.019505,0.024122,0.012187,0.013829,0.016997,0.071844,0.25616,2
0.037872,0.019505,0.024122,0.012187,0.013829,0.016997,0.071844,0.25616,2
0.04401,0.019969,0.024164,0.014048,0.013755,0.016817,0.073648,0.27879,2
0.039141,0.015362,0.020963,0.014335,0.012435,0.014616,0.046175,0.27431,2
0.039141,0.015362,0.020963,0.014335,0.012435,0.014616,0.046175,0.27431,2
0.037953,0.014406,0.024869,0.013456,0.01315,0.012516,0.04082,0.27705,2
0.037953,0.014406,0.024869,0.013456,0.01315,0.012516,0.04082,0.27705,2
0.037953,0.014406,0.024869,0.013456,0.01315,0.012516,0.04082,0.27705,2
0.037953,0.014406,0.024869,0.013456,0.01315,0.012516,0.04082,0.27705,2
0.040944,0.014892,0.024746,0.015162,0.012103,0.011049,0.037846,0.28966,2
0.040944,0.014892,0.024746,0.015162,0.012103,0.011049,0.037846,0.28966,2
0.041364,0.01569,0.02491,0.012916,0.012019,0.011588,0.02695,0.21463,2
0.041364,0.01569,0.02491,0.012916,0.012019,0.011588,0.02695,0.21463,2
0.041364,0.01569,0.02491,0.012916,0.012019,0.011588,0.02695,0.21463,2
0.041364,0.01569,0.02491,0.012916,0.012019,0.011588,0.02695,0.21463,2
0.041585,0.016074,0.020422,0.013681,0.011231,0.011762,0.032212,0.22389,2
0.039657,0.016877,0.017585,0.011934,0.012758,0.011762,0.037277,0.25333,2
0.039657,0.016877,0.017585,0.011934,0.012758,0.011762,0.037277,0.25333,2
0.039657,0.016877,0.017585,0.011934,0.012758,0.011762,0.037277,0.25333,2
0.035084,0.016817,0.016877,0.011675,0.012435,0.011762,0.03703,0.24851,2
0.033207,0.015755,0.019661,0.012837,0.012353,0.012353,0.042289,0.23613,2
0.033207,0.015755,0.019661,0.012837,0.012353,0.012353,0.042289,0.23613,2
0.033207,0.015755,0.019661,0.012837,0.012353,0.012353,0.042289,0.23613,2
0.033207,0.015755,0.019661,0.012837,0.012353,0.012353,0.042289,0.23613,2
0.033207,0.015755,0.019661,0.012837,0.012353,0.012353,0.042289,0.23613,2
0.033207,0.015755,0.019661,0.012837,0.012353,0.012353,0.042289,0.23613,2
0.033207,0.015755,0.019661,0.012837,0.012353,0.012353,0.042289,0.23613,2
0.033207,0.015755,0.019661,0.012837,0.012353,0.012353,0.042289,0.23613,2
0.033207,0.015755,0.019661,0.012837,0.012353,0.012353,0.042289,0.23613,2
0.029749,0.014823,0.018815,0.012353,0.011762,0.01338,0.046219,0.2277,2
0.029749,0.014823,0.018815,0.012353,0.011762,0.01338,0.046219,0.2277,2
0.029749,0.014823,0.018815,0.012353,0.011762,0.01338,0.046219,0.2277,2
0.029749,0.014823,0.018815,0.012353,0.011762,0.01338,0.046219,0.2277,2
0.028952,0.015755,0.022051,0.012435,0.011049,0.013902,0.033724,0.21189,2
0.028952,0.015755,0.022051,0.012435,0.011049,0.013902,0.033724,0.21189,2
0.032085,0.016756,0.022097,0.01227,0.01114,0.017352,0.046417,0.19205,2
0.032085,0.016756,0.022097,0.01227,0.01114,0.017352,0.046417,0.19205,2
0.032085,0.016756,0.022097,0.01227,0.01114,0.017352,0.046417,0.19205,2
0.032085,0.016756,0.022097,0.01227,0.01114,0.017352,0.046417,0.19205,2
0.03218,0.016263,0.02228,0.012019,0.010384,0.016388,0.046526,0.19209,2
0.03218,0.016263,0.02228,0.012019,0.010384,0.016388,0.046526,0.19209,2
0.036672,0.01645,0.027101,0.012353,0.011588,0.016388,0.05125,0.21581,2
0.036672,0.01645,0.027101,0.012353,0.011588,0.016388,0.05125,0.21581,2
0.037085,0.01645,0.027437,0.012103,0.011848,0.015883,0.048559,0.20369,2
0.037603,0.018377,0.025195,0.012019,0.013755,0.015883,0.060398,0.25007,2
0.037603,0.018377,0.025195,0.012019,0.013755,0.015883,0.060398,0.25007,2
0.032338,0.016817,0.02106,0.010186,0.01315,0.01496,0.056679,0.2454,2
0.032338,0.016817,0.02106,0.010186,0.01315,0.01496,0.056679,0.2454,2
0.032401,0.016325,0.020323,0.011049,0.013532,0.015819,0.057675,0.23917,2
0.032401,0.016325,0.020323,0.011049,0.013532,0.015819,0.057675,0.23917,2
0.026146,0.016817,0.021866,0.0097786,0.013532,0.014406,0.052987,0.2133,2
0.022866,0.014754,0.0213,0.010674,0.012187,0.012516,0.038696,0.2244,2
0.022866,0.014754,0.0213,0.010674,0.012187,0.012516,0.038696,0.2244,2
0.022866,0.014754,0.0213,0.010674,0.012187,0.012516,0.038696,0.2244,2
0.022999,0.014685,0.0213,0.010863,0.011762,0.012758,0.033754,0.21293,2
0.022999,0.014685,0.0213,0.010863,0.011762,0.012758,0.033754,0.21293,2
0.027026,0.014892,0.020422,0.010863,0.012103,0.012597,0.046875,0.1852,2
0.027026,0.014892,0.020422,0.010863,0.012103,0.012597,0.046875,0.1852,2
0.030055,0.01338,0.020222,0.011231,0.012353,0.013304,0.047048,0.18577,2
0.031054,0.014264,0.021395,0.011934,0.012353,0.013681,0.048976,0.17354,2
0.031054,0.014264,0.021395,0.011934,0.012353,0.013681,0.048976,0.17354,2
0.036253,0.013681,0.0162,0.0115,0.013073,0.013228,0.049328,0.20998,2
0.034173,0.013829,0.020915,0.011675,0.012758,0.014476,0.033512,0.1957,2
0.034173,0.013829,0.020915,0.011675,0.012758,0.014476,0.033512,0.1957,2
0.033421,0.013607,0.022189,0.011321,0.012019,0.014823,0.040919,0.21623,2
0.033421,0.013607,0.022189,0.011321,0.012019,0.014823,0.040919,0.21623,2
0.033421,0.014476,0.022688,0.010578,0.012758,0.014546,0.041093,0.22914,2
0.033421,0.014476,0.022688,0.010578,0.012758,0.014546,0.041093,0.22914,2
0.035142,0.013829,0.027585,0.01114,0.01114,0.015095,0.044056,0.19626,2
0.035142,0.013829,0.027585,0.01114,0.01114,0.015095,0.044056,0.19626,2
0.035142,0.013829,0.027585,0.01114,0.01114,0.015095,0.044056,0.19626,2
0.035142,0.013829,0.027585,0.01114,0.01114,0.015095,0.044056,0.19626,2
0.034114,0.01315,0.024415,0.010956,0.0115,0.014546,0.052987,0.20467,2
0.030258,0.012516,0.023263,0.012019,0.013975,0.014192,0.045151,0.20595,2
0.030258,0.012516,0.023263,0.012019,0.013975,0.014192,0.045151,0.20595,2
0.030258,0.012516,0.023263,0.012019,0.013975,0.014192,0.045151,0.20595,2
0.032306,0.014264,0.022911,0.012103,0.013228,0.014406,0.054725,0.16192,2
0.03125,0.013681,0.01315,0.012678,0.015428,0.014892,0.0555,0.15324,2
0.03125,0.013681,0.01315,0.012678,0.015428,0.014892,0.0555,0.15324,2
0.032085,0.013829,0.019661,0.014264,0.015883,0.014685,0.060666,0.15504,2
0.034233,0.015162,0.02002,0.014192,0.014754,0.014192,0.060834,0.13849,2
0.034233,0.015162,0.02002,0.014192,0.014754,0.014192,0.060834,0.13849,2
0.03339,0.015028,0.018266,0.010086,0.014546,0.013755,0.047479,0.18525,2
0.04134,0.01496,0.019557,0.010286,0.012597,0.01569,0.049596,0.20708,2
0.040745,0.015028,0.019401,0.011321,0.012758,0.015625,0.047969,0.20087,2
0.040745,0.015028,0.019401,0.011321,0.012758,0.015625,0.047969,0.20087,2
0.039218,0.014406,0.019557,0.010956,0.010769,0.015755,0.048726,0.19254,2
0.039218,0.014406,0.019557,0.010956,0.010769,0.015755,0.048726,0.19254,2
0.03714,0.012103,0.019401,0.012103,0.0091332,0.01338,0.051606,0.186,2
0.039244,0.013304,0.015819,0.012353,0.0098821,0.015883,0.054557,0.18696,2
0.039244,0.013304,0.015819,0.012353,0.0098821,0.015883,0.054557,0.18696,2
0.03167,0.013304,0.015883,0.012435,0.010186,0.015428,0.051744,0.18651,2
0.03167,0.013304,0.015883,0.012435,0.010186,0.015428,0.051744,0.18651,2
0.028917,0.013532,0.017235,0.011411,0.010482,0.015296,0.048935,0.16185,2
0.028917,0.013532,0.017235,0.011411,0.010482,0.015296,0.048935,0.16185,2
0.028634,0.012353,0.019083,0.0091332,0.012758,0.017701,0.049369,0.15472,2
0.028634,0.012353,0.019083,0.0091332,0.012758,0.017701,0.049369,0.15472,2
0.027362,0.012103,0.019557,0.0091332,0.012516,0.016756,0.047863,0.13234,2
0.027362,0.012103,0.019557,0.0091332,0.012516,0.016756,0.047863,0.13234,2
0.030291,0.012435,0.017176,0.010286,0.011588,0.016937,0.05478,0.11573,2
0.030291,0.012435,0.017176,0.010286,0.011588,0.016937,0.05478,0.11573,2
0.030291,0.012435,0.017176,0.010286,0.011588,0.016937,0.05478,0.11573,2
0.030291,0.012435,0.017176,0.010286,0.011588,0.016937,0.05478,0.11573,2
0.031958,0.013304,0.02228,0.010482,0.0115,0.016756,0.049411,0.12156,2
0.031958,0.013304,0.02228,0.010482,0.0115,0.016756,0.049411,0.12156,2
0.031958,0.013304,0.02228,0.010482,0.0115,0.016756,0.049411,0.12156,2
0.031958,0.013304,0.02228,0.010482,0.0115,0.016756,0.049411,0.12156,2
0.032149,0.014616,0.019609,0.010286,0.010674,0.018266,0.045196,0.15243,2
0.032149,0.014616,0.019609,0.010286,0.010674,0.018266,0.045196,0.15243,2
0.027362,0.01338,0.019867,0.010769,0.01227,0.017176,0.038459,0.16744,2
0.027362,0.01338,0.019867,0.010769,0.01227,0.017176,0.038459,0.16744,2
0.029162,0.014823,0.021819,0.012353,0.010769,0.01412,0.040969,0.17819,2
0.029162,0.014823,0.021819,0.012353,0.010769,0.01412,0.040969,0.17819,2
0.029162,0.014823,0.021819,0.012353,0.010769,0.01412,0.040969,0.17819,2
0.029162,0.014823,0.021819,0.012353,0.010769,0.01412,0.040969,0.17819,2
0.03563,0.01315,0.020522,0.012516,0.010769,0.01315,0.06028,0.15249,2
0.03563,0.01315,0.020522,0.012516,0.010769,0.01315,0.06028,0.15249,2
0.037495,0.015819,0.01315,0.011762,0.012435,0.015162,0.059035,0.1553,2
0.037495,0.015819,0.01315,0.011762,0.012435,0.015162,0.059035,0.1553,2
0.037495,0.015819,0.01315,0.011762,0.012435,0.015162,0.059035,0.1553,2
0.037495,0.015819,0.01315,0.011762,0.012435,0.015162,0.059035,0.1553,2
0.037003,0.015095,0.011411,0.0099845,0.012019,0.014892,0.057763,0.15205,2
0.037003,0.015095,0.011411,0.0099845,0.012019,0.014892,0.057763,0.15205,2
0.031767,0.01315,0.020866,0.0098821,0.013755,0.013681,0.038775,0.15313,2
0.031767,0.01315,0.020866,0.0098821,0.013755,0.013681,0.038775,0.15313,2
0.031767,0.01315,0.020866,0.0098821,0.013755,0.013681,0.038775,0.15313,2
0.031767,0.01315,0.020866,0.0098821,0.013755,0.013681,0.038775,0.15313,2
0.027695,0.012435,0.021012,0.011588,0.011762,0.01315,0.039708,0.16129,2
0.027695,0.012435,0.021012,0.011588,0.011762,0.01315,0.039708,0.16129,2
0.021204,0.011934,0.024037,0.011411,0.009674,0.011411,0.040243,0.18425,2
0.021204,0.011934,0.024037,0.011411,0.009674,0.011411,0.040243,0.18425,2
0.021204,0.011934,0.024037,0.011411,0.009674,0.011411,0.040243,0.18425,2
0.021204,0.011934,0.024037,0.011411,0.009674,0.011411,0.040243,0.18425,2
0.021443,0.013456,0.017643,0.012187,0.010186,0.01227,0.044263,0.19898,2
0.021443,0.013456,0.017643,0.012187,0.010186,0.01227,0.044263,0.19898,2
0.028811,0.014192,0.022326,0.011321,0.010578,0.01338,0.048075,0.16482,2
0.028811,0.014192,0.022326,0.011321,0.010578,0.01338,0.048075,0.16482,2
0.028811,0.014192,0.022326,0.011321,0.010578,0.01338,0.048075,0.16482,2
0.028811,0.014192,0.022326,0.011321,0.010578,0.01338,0.048075,0.16482,2
0.028563,0.014264,0.022326,0.011321,0.010482,0.01338,0.049411,0.16482,2
0.028563,0.014264,0.022326,0.011321,0.010482,0.01338,0.049411,0.16482,2
0.028563,0.014264,0.022326,0.011321,0.010482,0.01338,0.049411,0.16482,2
0.031283,0.014476,0.019816,0.0115,0.010286,0.013456,0.05192,0.16881,2
0.031283,0.014476,0.019816,0.0115,0.010286,0.013456,0.05192,0.16881,2
0.029817,0.013304,0.024746,0.010482,0.009674,0.012916,0.047969,0.15076,2
0.029817,0.013304,0.024746,0.010482,0.009674,0.012916,0.047969,0.15076,2
0.025872,0.012916,0.025195,0.010186,0.0098821,0.011675,0.046897,0.15236,2
0.025872,0.012916,0.025195,0.010186,0.0098821,0.011675,0.046897,0.15236,2
0.024499,0.01338,0.025516,0.010286,0.009674,0.012995,0.041707,0.14766,2
0.024499,0.01338,0.025516,0.010286,0.009674,0.012995,0.041707,0.14766,2
0.024499,0.01338,0.025516,0.010286,0.009674,0.012995,0.041707,0.14766,2
0.024499,0.01338,0.025516,0.010286,0.009674,0.012995,0.041707,0.14766,2
0.02491,0.012435,0.020373,0.010578,0.010186,0.01227,0.039887,0.14835,2
0.02491,0.012435,0.020373,0.010578,0.010186,0.01227,0.039887,0.14835,2
0.025114,0.012103,0.020472,0.011588,0.010674,0.013681,0.046175,0.15568,2
0.025114,0.012103,0.020472,0.011588,0.010674,0.013681,0.046175,0.15568,2
0.025154,0.012019,0.019867,0.012019,0.010674,0.013304,0.046219,0.14873,2
0.025154,0.012019,0.019867,0.012019,0.010674,0.013304,0.046219,0.14873,2
0.022097,0.010863,0.019243,0.011848,0.01114,0.012103,0.038459,0.14789,2
0.022097,0.010863,0.019243,0.011848,0.01114,0.012103,0.038459,0.14789,2
0.026301,0.012187,0.01412,0.011675,0.0093533,0.012916,0.037304,0.17041,2
0.026301,0.012187,0.01412,0.011675,0.0093533,0.012916,0.037304,0.17041,2
0.024705,0.012837,0.01496,0.0115,0.0094614,0.013532,0.039192,0.16764,2
0.024705,0.012837,0.01496,0.0115,0.0094614,0.013532,0.039192,0.16764,2
0.024581,0.010769,0.015625,0.011321,0.0086762,0.011675,0.039734,0.19361,2
0.024581,0.010769,0.015625,0.011321,0.0086762,0.011675,0.039734,0.19361,2
0.031054,0.015229,0.041561,0.010086,0.0086762,0.011934,0.037168,0.1684,2
0.031054,0.015229,0.041561,0.010086,0.0086762,0.011934,0.037168,0.1684,2
0.031054,0.015229,0.041561,0.010086,0.0086762,0.011934,0.037168,0.1684,2
0.031054,0.015229,0.041561,0.010086,0.0086762,0.011934,0.037168,0.1684,2
0.032589,0.017235,0.041707,0.011049,0.0097786,0.012995,0.038854,0.16581,2
0.032589,0.017235,0.041707,0.011049,0.0097786,0.012995,0.038854,0.16581,2
0.037003,0.018761,0.04324,0.011049,0.01114,0.013532,0.045999,0.13018,2
0.035716,0.018869,0.042791,0.011321,0.011411,0.014048,0.044789,0.14231,2
0.035716,0.018869,0.042791,0.011321,0.011411,0.014048,0.044789,0.14231,2
0.034997,0.016634,0.020272,0.010863,0.011411,0.01496,0.04765,0.15622,2
0.034997,0.016634,0.020272,0.010863,0.011411,0.01496,0.04765,0.15622,2
0.032085,0.013902,0.019137,0.010286,0.01114,0.013829,0.047948,0.17028,2
0.032085,0.013902,0.019137,0.010286,0.01114,0.013829,0.047948,0.17028,2
0.032085,0.013902,0.019137,0.010286,0.01114,0.013829,0.047948,0.17028,2
0.032085,0.013902,0.019137,0.010286,0.01114,0.013829,0.047948,0.17028,2
0.032085,0.013902,0.019137,0.010286,0.01114,0.013829,0.047948,0.17028,2
0.032085,0.013902,0.019137,0.010286,0.01114,0.013829,0.047948,0.17028,2
0.030055,0.012019,0.019295,0.011762,0.010863,0.013681,0.051091,0.15727,2
0.030055,0.012019,0.019295,0.011762,0.010863,0.013681,0.051091,0.15727,2
0.031185,0.010578,0.020719,0.012103,0.011934,0.013902,0.056607,0.15985,2
0.031185,0.010578,0.020719,0.012103,0.011934,0.013902,0.056607,0.15985,2
0.031185,0.010578,0.020719,0.012103,0.011934,0.013902,0.056607,0.15985,2
0.031185,0.010578,0.020719,0.012103,0.011934,0.013902,0.056607,0.15985,2
0.038247,0.011934,0.022005,0.012837,0.012916,0.01412,0.055224,0.13769,2
0.038247,0.011934,0.022005,0.012837,0.012916,0.01412,0.055224,0.13769,2
0.062516,0.019557,0.018761,0.010286,0.011934,0.012187,0.044515,0.15546,2
0.062516,0.019557,0.018761,0.010286,0.011934,0.012187,0.044515,0.15546,2
0.062516,0.019557,0.018761,0.010286,0.011934,0.012187,0.044515,0.15546,2
0.062516,0.019557,0.018761,0.010286,0.011934,0.012187,0.044515,0.15546,2
0.042576,0.013607,0.021012,0.010186,0.012516,0.015229,0.04178,0.17092,2
0.042576,0.013607,0.021012,0.010186,0.012516,0.015229,0.04178,0.17092,2
0.042576,0.013607,0.021012,0.010186,0.012516,0.015229,0.04178,0.17092,2
0.040243,0.013607,0.021012,0.0098821,0.012837,0.0162,0.043685,0.17633,2
0.028917,0.013607,0.017929,0.0094614,0.012995,0.015755,0.04394,0.16439,2
0.028917,0.013607,0.017929,0.0094614,0.012995,0.015755,0.04394,0.16439,2
0.028348,0.014754,0.025235,0.0086762,0.011321,0.013532,0.039374,0.17463,2
0.028348,0.014754,0.025235,0.0086762,0.011321,0.013532,0.039374,0.17463,2
0.033421,0.01569,0.027138,0.0093533,0.011588,0.014335,0.037304,0.16828,2
0.033421,0.01569,0.027138,0.0093533,0.011588,0.014335,0.037304,0.16828,2
0.033421,0.01569,0.027138,0.0093533,0.011588,0.014335,0.037304,0.16828,2
0.033421,0.01569,0.027138,0.0093533,0.011588,0.014335,0.037304,0.16828,2
0.030658,0.015296,0.024869,0.0115,0.012597,0.014264,0.035971,0.16603,2
0.030658,0.015296,0.024869,0.0115,0.012597,0.014264,0.035971,0.16603,2
0.030157,0.015755,0.025872,0.01338,0.014892,0.018543,0.047005,0.20932,2
0.030157,0.015755,0.025872,0.01338,0.014892,0.018543,0.047005,0.20932,2
0.030157,0.015755,0.025872,0.01338,0.014892,0.018543,0.047005,0.20932,2
0.02842,0.012597,0.021819,0.010769,0.014192,0.016634,0.059975,0.22029,2
0.02842,0.012597,0.021819,0.010769,0.014192,0.016634,0.059975,0.22029,2
0.02842,0.012597,0.021819,0.010769,0.014192,0.016634,0.059975,0.22029,2
0.02842,0.012597,0.021819,0.010769,0.014192,0.016634,0.059975,0.22029,2
0.02842,0.012597,0.021819,0.010769,0.014192,0.016634,0.059975,0.22029,2
0.033844,0.014335,0.020768,0.011934,0.014048,0.016997,0.060431,0.23915,2
0.033844,0.014335,0.020768,0.011934,0.014048,0.016997,0.060431,0.23915,2
0.033023,0.012678,0.022732,0.011848,0.012597,0.013755,0.052852,0.19826,2
0.033023,0.012678,0.022732,0.011848,0.012597,0.013755,0.052852,0.19826,2
0.030291,0.012916,0.017057,0.012597,0.011934,0.014192,0.041068,0.18746,2
0.040369,0.022911,0.02408,0.0093533,0.011588,0.012916,0.042743,0.20969,2
0.044902,0.025195,0.025356,0.011231,0.013607,0.01569,0.052311,0.18605,2
0.044902,0.025195,0.025356,0.011231,0.013607,0.01569,0.052311,0.18605,2
0.041512,0.022143,0.029749,0.012103,0.013829,0.015028,0.054501,0.17247,2
0.041512,0.022143,0.029749,0.012103,0.013829,0.015028,0.054501,0.17247,2
0.043615,0.023438,0.029057,0.012435,0.014823,0.01569,0.053427,0.16846,2
0.043615,0.023438,0.029057,0.012435,0.014823,0.01569,0.053427,0.16846,2
0.044538,0.020915,0.030492,0.012187,0.015755,0.018869,0.05127,0.16864,2
0.044538,0.020915,0.030492,0.012187,0.015755,0.018869,0.05127,0.16864,2
0.042216,0.019867,0.025754,0.012597,0.015494,0.018923,0.046373,0.15741,2
0.042216,0.019867,0.025754,0.012597,0.015494,0.018923,0.046373,0.15741,2
0.041707,0.020522,0.027951,0.012435,0.015162,0.017176,0.05057,0.15445,2
0.041707,0.020522,0.027951,0.012435,0.015162,0.017176,0.05057,0.15445,2
0.041853,0.029162,0.026988,0.012678,0.014823,0.018433,0.05931,0.17214,2
0.041853,0.029162,0.026988,0.012678,0.014823,0.018433,0.05931,0.17214,2
0.041241,0.028132,0.028384,0.011934,0.014192,0.018322,0.057374,0.17795,2
0.041241,0.028132,0.028384,0.011934,0.014192,0.018322,0.057374,0.17795,2
0.041438,0.02842,0.026493,0.012678,0.01315,0.016074,0.058184,0.1853,2
0.041438,0.02842,0.026493,0.012678,0.01315,0.016074,0.058184,0.1853,2
0.040745,0.028634,0.028384,0.012103,0.011411,0.016263,0.05764,0.17424,2
0.040745,0.028634,0.028384,0.012103,0.011411,0.016263,0.05764,0.17424,2
0.042289,0.026799,0.024122,0.010956,0.010863,0.01412,0.049984,0.16364,2
0.031831,0.018155,0.027695,0.010674,0.011411,0.011231,0.03681,0.13326,2
0.031831,0.018155,0.027695,0.010674,0.011411,0.011231,0.03681,0.13326,2
0.032463,0.017758,0.027658,0.010578,0.01227,0.010482,0.040495,0.15091,2
0.032463,0.017758,0.027658,0.010578,0.01227,0.010482,0.040495,0.15091,2
0.035887,0.018815,0.030824,0.011231,0.012353,0.013681,0.046745,0.14685,2
0.035887,0.018815,0.030824,0.011231,0.012353,0.013681,0.046745,0.14685,2
0.036727,0.019505,0.027063,0.011321,0.012837,0.013829,0.04472,0.16006,2
0.036727,0.019505,0.027063,0.011321,0.012837,0.013829,0.04472,0.16006,2
0.032961,0.019867,0.037413,0.011411,0.013681,0.01315,0.04858,0.16226,2
0.032961,0.019867,0.037413,0.011411,0.013681,0.01315,0.04858,0.16226,2
0.038326,0.019713,0.035659,0.01114,0.012353,0.014406,0.048976,0.14446,2
0.038326,0.019713,0.035659,0.01114,0.012353,0.014406,0.048976,0.14446,2
0.037846,0.020323,0.035315,0.010956,0.012435,0.014192,0.047543,0.13876,2
0.037846,0.020323,0.035315,0.010956,0.012435,0.014192,0.047543,0.13876,2
0.038406,0.018543,0.033176,0.0092439,0.013532,0.012597,0.040268,0.16011,2
0.038406,0.018543,0.033176,0.0092439,0.013532,0.012597,0.040268,0.16011,2
0.039192,0.023654,0.033874,0.010482,0.012516,0.013681,0.042624,0.18561,2
0.039192,0.023654,0.033874,0.010482,0.012516,0.013681,0.042624,0.18561,2
0.037576,0.023438,0.024332,0.010086,0.011934,0.015229,0.034617,0.23182,2
0.037576,0.023438,0.024332,0.010086,0.011934,0.015229,0.034617,0.23182,2
0.034939,0.022417,0.022372,0.0093533,0.012353,0.014754,0.034558,0.2416,2
0.034939,0.022417,0.022372,0.0093533,0.012353,0.014754,0.034558,0.2416,2
0.031542,0.021108,0.024499,0.01114,0.013073,0.015362,0.039913,0.2505,2
0.031542,0.021108,0.024499,0.01114,0.013073,0.015362,0.039913,0.2505,2
0.033844,0.022732,0.024829,0.010578,0.012995,0.015947,0.046832,0.24039,2
0.033844,0.022732,0.024829,0.010578,0.012995,0.015947,0.046832,0.24039,2
0.035573,0.018597,0.028952,0.010956,0.012353,0.014685,0.047414,0.2083,2
0.035573,0.018597,0.028952,0.010956,0.012353,0.014685,0.047414,0.2083,2
0.036281,0.017585,0.02992,0.010482,0.012916,0.014476,0.049943,0.1829,2
0.036281,0.017585,0.02992,0.010482,0.012916,0.014476,0.049943,0.1829,2
0.037819,0.019137,0.033663,0.0094614,0.012916,0.014546,0.048768,0.17406,2
0.037819,0.019137,0.033663,0.0094614,0.012916,0.014546,0.048768,0.17406,2
0.037684,0.02429,0.033694,0.0091332,0.01315,0.014335,0.043545,0.18255,2
0.037684,0.02429,0.033694,0.0091332,0.01315,0.014335,0.043545,0.18255,2
0.034676,0.02429,0.033542,0.0091332,0.012597,0.015362,0.055316,0.19221,2
0.034676,0.02429,0.033542,0.0091332,0.012597,0.015362,0.055316,0.19221,2
0.030055,0.022372,0.032369,0.010186,0.014406,0.016634,0.055555,0.20111,2
0.030055,0.022372,0.032369,0.010186,0.014406,0.016634,0.055555,0.20111,2
0.027362,0.022553,0.031767,0.010769,0.013304,0.015819,0.057481,0.24463,2
0.027362,0.022553,0.031767,0.010769,0.013304,0.015819,0.057481,0.24463,2
0.03336,0.022417,0.026339,0.010384,0.012187,0.015494,0.054762,0.22617,2
0.031735,0.015819,0.025714,0.011934,0.013073,0.014546,0.040268,0.20769,2
0.031735,0.015819,0.025714,0.011934,0.013073,0.014546,0.040268,0.20769,2
0.034939,0.016756,0.024581,0.011762,0.012916,0.013073,0.048538,0.21674,2
0.034939,0.016756,0.024581,0.011762,0.012916,0.013073,0.048538,0.21674,2
0.040469,0.015947,0.024415,0.012916,0.013902,0.014192,0.05422,0.21508,2
0.040469,0.015947,0.024415,0.012916,0.013902,0.014192,0.05422,0.21508,2
0.039913,0.014335,0.02391,0.01315,0.013607,0.015494,0.055537,0.2037,2
0.039913,0.014335,0.02391,0.01315,0.013607,0.015494,0.055537,0.2037,2
0.042361,0.023307,0.024332,0.012435,0.01227,0.014616,0.057072,0.20015,2
0.042361,0.023307,0.024332,0.012435,0.01227,0.014616,0.057072,0.20015,2
0.043568,0.025516,0.025275,0.012353,0.013829,0.017116,0.061433,0.21758,2
0.038406,0.02491,0.020323,0.010286,0.012916,0.017872,0.056983,0.17804,2
0.038406,0.02491,0.020323,0.010286,0.012916,0.017872,0.056983,0.17804,2
0.032149,0.027474,0.025315,0.0097786,0.011848,0.017352,0.050024,0.16086,2
0.024164,0.028776,0.026761,0.01114,0.012678,0.016695,0.046832,0.19828,2
0.020719,0.021772,0.026107,0.011934,0.011321,0.014546,0.038696,0.19071,2
0.020719,0.021772,0.026107,0.011934,0.011321,0.014546,0.038696,0.19071,2
0.024581,0.021819,0.031767,0.01227,0.012435,0.013532,0.04681,0.20214,2
0.024581,0.021819,0.031767,0.01227,0.012435,0.013532,0.04681,0.20214,2
0.025476,0.021395,0.030725,0.011675,0.011049,0.011321,0.048096,0.20145,2
0.025476,0.021395,0.030725,0.011675,0.011049,0.011321,0.048096,0.20145,2
0.026262,0.018543,0.028204,0.011411,0.011231,0.011231,0.05235,0.2092,2
0.026262,0.018543,0.028204,0.011411,0.011231,0.011231,0.05235,0.2092,2
0.030956,0.01903,0.030692,0.010863,0.011049,0.012597,0.05291,0.22762,2
0.030956,0.01903,0.030692,0.010863,0.011049,0.012597,0.05291,0.22762,2
0.030791,0.018597,0.034851,0.010086,0.011675,0.012019,0.050429,0.20292,2
0.030791,0.018597,0.034851,0.010086,0.011675,0.012019,0.050429,0.20292,2
0.032526,0.017294,0.029852,0.009674,0.011231,0.013681,0.046373,0.18146,2
0.032526,0.017294,0.029852,0.009674,0.011231,0.013681,0.046373,0.18146,2
0.033542,0.017176,0.029954,0.0090211,0.01114,0.013902,0.040192,0.18053,2
0.033663,0.015095,0.028492,0.010482,0.01338,0.013456,0.044675,0.18678,2
0.033663,0.015095,0.028492,0.010482,0.01338,0.013456,0.044675,0.18678,2
0.033844,0.017352,0.023995,0.010863,0.012758,0.014048,0.043592,0.18929,2
0.033844,0.017352,0.023995,0.010863,0.012758,0.014048,0.043592,0.18929,2
0.035915,0.017815,0.023868,0.010769,0.012995,0.014754,0.047264,0.18602,2
0.035915,0.017815,0.023868,0.010769,0.012995,0.014754,0.047264,0.18602,2
0.034763,0.016011,0.024415,0.011588,0.012103,0.013228,0.042672,0.19621,2
0.034763,0.016011,0.024415,0.011588,0.012103,0.013228,0.042672,0.19621,2
0.034968,0.015755,0.017929,0.010384,0.011675,0.012678,0.040944,0.18549,2
0.034968,0.015755,0.017929,0.010384,0.011675,0.012678,0.040944,0.18549,2
0.03441,0.022955,0.019505,0.010384,0.012187,0.013829,0.049246,0.1776,2
0.03563,0.019764,0.015947,0.010384,0.013304,0.013228,0.054108,0.14714,2
0.03563,0.019764,0.015947,0.010384,0.013304,0.013228,0.054108,0.14714,2
0.033238,0.020522,0.019609,0.0097786,0.012678,0.012837,0.05452,0.15366,2
0.033238,0.020522,0.019609,0.0097786,0.012678,0.012837,0.05452,0.15366,2
0.028669,0.012597,0.017585,0.011049,0.012516,0.011934,0.047156,0.17679,2
0.026647,0.014192,0.023044,0.011588,0.011934,0.014048,0.047905,0.19044,2
0.026647,0.014192,0.023044,0.011588,0.011934,0.014048,0.047905,0.19044,2
0.026799,0.013902,0.023351,0.011049,0.011411,0.012837,0.053882,0.18847,2
0.026799,0.013902,0.023351,0.011049,0.011411,0.012837,0.053882,0.18847,2
0.026913,0.014335,0.026913,0.011675,0.0115,0.013304,0.057921,0.20473,2
0.026913,0.014335,0.026913,0.011675,0.0115,0.013304,0.057921,0.20473,2
0.030459,0.014685,0.025516,0.011321,0.011675,0.016074,0.063309,0.21681,2
0.030459,0.014685,0.025516,0.011321,0.011675,0.016074,0.063309,0.21681,2
0.028277,0.014335,0.028168,0.011588,0.011762,0.015296,0.058828,0.20442,2
0.028277,0.014335,0.028168,0.011588,0.011762,0.015296,0.058828,0.20442,2
0.031542,0.013304,0.027841,0.011934,0.01227,0.015494,0.057286,0.22026,2
0.030758,0.016511,0.027026,0.011762,0.012837,0.016817,0.052795,0.21698,2
0.030758,0.016511,0.027026,0.011762,0.012837,0.016817,0.052795,0.21698,2
0.029266,0.016573,0.026988,0.011411,0.012103,0.016634,0.048664,0.20508,2
0.029266,0.016573,0.026988,0.011411,0.012103,0.016634,0.048664,0.20508,2
0.029266,0.016937,0.01919,0.010956,0.0097786,0.016511,0.058602,0.18749,2
0.029817,0.015428,0.019083,0.010956,0.0097786,0.01556,0.058079,0.1807,2
0.029817,0.015428,0.019083,0.010956,0.0097786,0.01556,0.058079,0.1807,2
0.033663,0.015296,0.014892,0.011049,0.0095683,0.01412,0.059276,0.18777,2
0.033663,0.015296,0.014892,0.011049,0.0095683,0.01412,0.059276,0.18777,2
0.032053,0.016325,0.018543,0.011049,0.0094614,0.013304,0.057675,0.2124,2
0.027325,0.01412,0.014685,0.0115,0.014754,0.014546,0.035545,0.15902,3
0.027251,0.013755,0.014264,0.011231,0.015095,0.013532,0.031185,0.14226,3
0.026339,0.012516,0.014192,0.011321,0.015362,0.01315,0.034909,0.14129,3
0.026339,0.012516,0.014192,0.011321,0.015362,0.01315,0.034909,0.14129,3
0.021252,0.011321,0.017643,0.010286,0.016263,0.012516,0.03822,0.14694,3
0.021395,0.011321,0.015162,0.010186,0.01338,0.01227,0.039734,0.13788,3
0.021395,0.011321,0.015162,0.010186,0.01338,0.01227,0.039734,0.13788,3
0.021395,0.011321,0.015162,0.010186,0.01338,0.01227,0.039734,0.13788,3
0.024992,0.012103,0.01556,0.010186,0.013755,0.014616,0.04506,0.1659,3
0.024992,0.012103,0.01556,0.010186,0.013755,0.014616,0.04506,0.1659,3
0.024992,0.012103,0.01556,0.010186,0.013755,0.014616,0.04506,0.1659,3
0.024992,0.012103,0.01556,0.010186,0.013755,0.014616,0.04506,0.1659,3
0.024992,0.012103,0.01556,0.010186,0.013755,0.014616,0.04506,0.1659,3
0.024992,0.012103,0.01556,0.010186,0.013755,0.014616,0.04506,0.1659,3
0.030157,0.01315,0.01227,0.012837,0.014685,0.016011,0.045733,0.21084,3
0.030157,0.01315,0.01227,0.012837,0.014685,0.016011,0.045733,0.21084,3
0.030157,0.01315,0.01227,0.012837,0.014685,0.016011,0.045733,0.21084,3
0.030157,0.01315,0.01227,0.012837,0.014685,0.016011,0.045733,0.21084,3
0.030157,0.01315,0.01227,0.012837,0.014685,0.016011,0.045733,0.21084,3
0.030157,0.01315,0.01227,0.012837,0.014685,0.016011,0.045733,0.21084,3
0.030157,0.01315,0.01227,0.012837,0.014685,0.016011,0.045733,0.21084,3
0.030157,0.01315,0.01227,0.012837,0.014685,0.016011,0.045733,0.21084,3
0.030157,0.01315,0.01227,0.012837,0.014685,0.016011,0.045733,0.21084,3
0.030157,0.01315,0.01227,0.012837,0.014685,0.016011,0.045733,0.21084,3
0.034939,0.01315,0.015755,0.012019,0.0162,0.014264,0.052369,0.14065,3
0.034939,0.01315,0.015755,0.012019,0.0162,0.014264,0.052369,0.14065,3
0.038538,0.015095,0.015362,0.013073,0.014616,0.013829,0.052987,0.13191,3
0.038538,0.015095,0.015362,0.013073,0.014616,0.013829,0.052987,0.13191,3
0.041143,0.015428,0.015883,0.011848,0.015229,0.015625,0.054277,0.14039,3
0.041143,0.015428,0.015883,0.011848,0.015229,0.015625,0.054277,0.14039,3
0.041192,0.015755,0.015883,0.012019,0.014892,0.016573,0.048075,0.14449,3
0.041192,0.015755,0.015883,0.012019,0.014892,0.016573,0.048075,0.14449,3
0.039836,0.015362,0.015883,0.011588,0.014823,0.018597,0.046636,0.15153,3
0.039836,0.015362,0.015883,0.011588,0.014823,0.018597,0.046636,0.15153,3
0.039836,0.015362,0.015883,0.011588,0.014823,0.018597,0.046636,0.15153,3
0.039836,0.015362,0.015883,0.011588,0.014823,0.018597,0.046636,0.15153,3
0.039836,0.015362,0.015883,0.011588,0.014823,0.018597,0.046636,0.15153,3
0.030592,0.013829,0.015428,0.010286,0.01412,0.013456,0.039734,0.13991,3
0.030592,0.013829,0.015428,0.010286,0.01412,0.013456,0.039734,0.13991,3
0.030358,0.013755,0.016011,0.010286,0.01412,0.01315,0.038827,0.1592,3
0.030358,0.013755,0.016011,0.010286,0.01412,0.01315,0.038827,0.1592,3
0.030358,0.013755,0.016011,0.010286,0.01412,0.01315,0.038827,0.1592,3
0.030358,0.013755,0.016011,0.010286,0.01412,0.01315,0.038827,0.1592,3
0.041143,0.017352,0.018923,0.012187,0.013456,0.013902,0.049163,0.20605,3
0.041143,0.017352,0.018923,0.012187,0.013456,0.013902,0.049163,0.20605,3
0.041143,0.017352,0.018923,0.012187,0.013456,0.013902,0.049163,0.20605,3
0.041143,0.017352,0.018923,0.012187,0.013456,0.013902,0.049163,0.20605,3
0.041143,0.017352,0.018923,0.012187,0.013456,0.013902,0.049163,0.20605,3
0.041143,0.017352,0.018923,0.012187,0.013456,0.013902,0.049163,0.20605,3
0.041143,0.017352,0.018923,0.012187,0.013456,0.013902,0.049163,0.20605,3
0.042289,0.017176,0.021538,0.012435,0.015296,0.014616,0.053255,0.1759,3
0.042289,0.017176,0.021538,0.012435,0.015296,0.014616,0.053255,0.1759,3
0.042289,0.017176,0.021538,0.012435,0.015296,0.014616,0.053255,0.1759,3
0.042289,0.017176,0.021538,0.012435,0.015296,0.014616,0.053255,0.1759,3
0.035026,0.012995,0.015428,0.010674,0.014192,0.011934,0.041093,0.14254,3
0.035026,0.012995,0.015428,0.010674,0.014192,0.011934,0.041093,0.14254,3
0.035401,0.011675,0.014616,0.01227,0.014754,0.013073,0.03744,0.13831,3
0.035401,0.011675,0.014616,0.01227,0.014754,0.013073,0.03744,0.13831,3
0.035401,0.011675,0.014616,0.01227,0.014754,0.013073,0.03744,0.13831,3
0.035401,0.011675,0.014616,0.01227,0.014754,0.013073,0.03744,0.13831,3
0.035401,0.011675,0.014616,0.01227,0.014754,0.013073,0.03744,0.13831,3
0.035401,0.011675,0.014616,0.01227,0.014754,0.013073,0.03744,0.13831,3
0.024664,0.01315,0.012916,0.01315,0.014754,0.013607,0.039063,0.1247,3
0.024664,0.01315,0.012916,0.01315,0.014754,0.013607,0.039063,0.1247,3
0.024664,0.01315,0.012916,0.01315,0.014754,0.013607,0.039063,0.1247,3
0.024664,0.01315,0.012916,0.01315,0.014754,0.013607,0.039063,0.1247,3
0.024664,0.01315,0.012916,0.01315,0.014754,0.013607,0.039063,0.1247,3
0.024664,0.01315,0.012916,0.01315,0.014754,0.013607,0.039063,0.1247,3
0.024829,0.014476,0.014892,0.011588,0.012995,0.01315,0.048033,0.13462,3
0.024829,0.014476,0.014892,0.011588,0.012995,0.01315,0.048033,0.13462,3
0.024829,0.014476,0.014892,0.011588,0.012995,0.01315,0.048033,0.13462,3
0.024829,0.014476,0.014892,0.011588,0.012995,0.01315,0.048033,0.13462,3
0.023739,0.01338,0.014476,0.0095683,0.01227,0.013532,0.050207,0.14721,3
0.023739,0.01338,0.014476,0.0095683,0.01227,0.013532,0.050207,0.14721,3
0.023739,0.01338,0.014476,0.0095683,0.01227,0.013532,0.050207,0.14721,3
0.023739,0.01338,0.014476,0.0095683,0.01227,0.013532,0.050207,0.14721,3
0.023739,0.01338,0.014476,0.0095683,0.01227,0.013532,0.050207,0.14721,3
0.023739,0.01338,0.014476,0.0095683,0.01227,0.013532,0.050207,0.14721,3
0.023739,0.01338,0.014476,0.0095683,0.01227,0.013532,0.050207,0.14721,3
0.023868,0.010863,0.011762,0.0092439,0.01227,0.016325,0.04394,0.14692,3
0.023868,0.010863,0.011762,0.0092439,0.01227,0.016325,0.04394,0.14692,3
0.023868,0.010863,0.011762,0.0092439,0.01227,0.016325,0.04394,0.14692,3
0.023868,0.010863,0.011762,0.0092439,0.01227,0.016325,0.04394,0.14692,3
0.023868,0.010863,0.011762,0.0092439,0.01227,0.016325,0.04394,0.14692,3
0.023868,0.010863,0.011762,0.0092439,0.01227,0.016325,0.04394,0.14692,3
0.028132,0.014546,0.018543,0.010286,0.015362,0.014685,0.047969,0.18468,3
0.028132,0.014546,0.018543,0.010286,0.015362,0.014685,0.047969,0.18468,3
0.028132,0.014546,0.018543,0.010286,0.015362,0.014685,0.047969,0.18468,3
0.028132,0.014546,0.018543,0.010286,0.015362,0.014685,0.047969,0.18468,3
0.028132,0.014546,0.018543,0.010286,0.015362,0.014685,0.047969,0.18468,3
0.028132,0.014546,0.018543,0.010286,0.015362,0.014685,0.047969,0.18468,3
0.028132,0.014546,0.018543,0.010286,0.015362,0.014685,0.047969,0.18468,3
0.027138,0.012597,0.023176,0.010186,0.015229,0.015229,0.039089,0.17701,3
0.027138,0.012597,0.023176,0.010186,0.015229,0.015229,0.039089,0.17701,3
0.027138,0.012597,0.023176,0.010186,0.015229,0.015229,0.039089,0.17701,3
0.027138,0.012597,0.023176,0.010186,0.015229,0.015229,0.039089,0.17701,3
0.025872,0.014406,0.016695,0.010384,0.014335,0.013975,0.041093,0.17542,3
0.025872,0.014406,0.016695,0.010384,0.014335,0.013975,0.041093,0.17542,3
0.025872,0.014406,0.016695,0.010384,0.014335,0.013975,0.041093,0.17542,3
0.025872,0.014406,0.016695,0.010384,0.014335,0.013975,0.041093,0.17542,3
0.025872,0.014406,0.016695,0.010384,0.014335,0.013975,0.041093,0.17542,3
0.025872,0.014406,0.016695,0.010384,0.014335,0.013975,0.041093,0.17542,3
0.025872,0.014406,0.016695,0.010384,0.014335,0.013975,0.041093,0.17542,3
0.028348,0.013902,0.01412,0.009674,0.014264,0.017585,0.042023,0.13342,3
0.028348,0.013902,0.01412,0.009674,0.014264,0.017585,0.042023,0.13342,3
0.027585,0.013228,0.01412,0.0095683,0.014192,0.016634,0.0394,0.13427,3
0.027585,0.013228,0.01412,0.0095683,0.014192,0.016634,0.0394,0.13427,3
0.027585,0.013228,0.01412,0.0095683,0.014192,0.016634,0.0394,0.13427,3
0.027585,0.013228,0.01412,0.0095683,0.014192,0.016634,0.0394,0.13427,3
0.027585,0.013228,0.01412,0.0095683,0.014192,0.016634,0.0394,0.13427,3
0.027585,0.013228,0.01412,0.0095683,0.014192,0.016634,0.0394,0.13427,3
0.027585,0.013228,0.01412,0.0095683,0.014192,0.016634,0.0394,0.13427,3
0.027585,0.013228,0.01412,0.0095683,0.014192,0.016634,0.0394,0.13427,3
0.028563,0.014335,0.014685,0.0095683,0.013902,0.016817,0.0394,0.13625,3
0.028563,0.014335,0.014685,0.0095683,0.013902,0.016817,0.0394,0.13625,3
0.026608,0.012597,0.016074,0.009674,0.012758,0.016877,0.04291,0.14767,3
0.026608,0.012597,0.016074,0.009674,0.012758,0.016877,0.04291,0.14767,3
0.026608,0.012597,0.016074,0.009674,0.012758,0.016877,0.04291,0.14767,3
0.026608,0.012597,0.016074,0.009674,0.012758,0.016877,0.04291,0.14767,3
0.026608,0.012597,0.016074,0.009674,0.012758,0.016877,0.04291,0.14767,3
0.029715,0.012187,0.014823,0.010863,0.013304,0.019557,0.041512,0.14194,3
0.029715,0.012187,0.014823,0.010863,0.013304,0.019557,0.041512,0.14194,3
0.029715,0.012187,0.014823,0.010863,0.013304,0.019557,0.041512,0.14194,3
0.029715,0.012187,0.014823,0.010863,0.013304,0.019557,0.041512,0.14194,3
0.029715,0.012187,0.014823,0.010863,0.013304,0.019557,0.041512,0.14194,3
0.029715,0.012187,0.014823,0.010863,0.013304,0.019557,0.041512,0.14194,3
0.025235,0.012837,0.017057,0.01315,0.015095,0.015296,0.036421,0.13883,3
0.025235,0.012837,0.017057,0.01315,0.015095,0.015296,0.036421,0.13883,3
0.025235,0.012837,0.017057,0.01315,0.015095,0.015296,0.036421,0.13883,3
0.025235,0.012837,0.017057,0.01315,0.015095,0.015296,0.036421,0.13883,3
0.025235,0.012837,0.017057,0.01315,0.015095,0.015296,0.036421,0.13883,3
0.025235,0.012837,0.017057,0.01315,0.015095,0.015296,0.036421,0.13883,3
0.029197,0.015947,0.017986,0.01227,0.013456,0.012758,0.039657,0.19341,3
0.029197,0.015947,0.017986,0.01227,0.013456,0.012758,0.039657,0.19341,3
0.029197,0.015947,0.017986,0.01227,0.013456,0.012758,0.039657,0.19341,3
0.029197,0.015947,0.017986,0.01227,0.013456,0.012758,0.039657,0.19341,3
0.029197,0.015947,0.017986,0.01227,0.013456,0.012758,0.039657,0.19341,3
0.029197,0.015947,0.017986,0.01227,0.013456,0.012758,0.039657,0.19341,3
0.030923,0.012995,0.016997,0.010863,0.012678,0.013829,0.04062,0.18113,3
0.030923,0.012995,0.016997,0.010863,0.012678,0.013829,0.04062,0.18113,3
0.030923,0.012995,0.016997,0.010863,0.012678,0.013829,0.04062,0.18113,3
0.030923,0.012995,0.016997,0.010863,0.012678,0.013829,0.04062,0.18113,3
0.026608,0.012103,0.018815,0.010286,0.01227,0.012353,0.036281,0.13836,3
0.026608,0.012103,0.018815,0.010286,0.01227,0.012353,0.036281,0.13836,3
0.028241,0.012597,0.022777,0.010956,0.01315,0.013681,0.041683,0.15024,3
0.028241,0.012597,0.022777,0.010956,0.01315,0.013681,0.041683,0.15024,3
0.028241,0.012597,0.022777,0.010956,0.01315,0.013681,0.041683,0.15024,3
0.028241,0.012597,0.022777,0.010956,0.01315,0.013681,0.041683,0.15024,3
0.036948,0.010674,0.022598,0.011321,0.011588,0.013073,0.043451,0.16904,3
0.036948,0.010674,0.022598,0.011321,0.011588,0.013073,0.043451,0.16904,3
0.036084,0.011934,0.018488,0.012758,0.012995,0.012758,0.037386,0.16938,3
0.036084,0.011934,0.018488,0.012758,0.012995,0.012758,0.037386,0.16938,3
0.034822,0.012916,0.017815,0.012597,0.012758,0.011762,0.037765,0.14434,3
0.03089,0.012837,0.018433,0.0094614,0.022643,0.011321,0.037331,0.19557,3
0.034822,0.011934,0.017872,0.0099845,0.021204,0.010674,0.036727,0.18039,3
0.03703,0.012187,0.018266,0.010578,0.021443,0.010769,0.037304,0.17161,3
0.03703,0.012187,0.018266,0.010578,0.021443,0.010769,0.037304,0.17161,3
0.04052,0.013975,0.017411,0.010956,0.019867,0.010956,0.027399,0.12815,3
0.041192,0.014754,0.0162,0.010674,0.01903,0.0115,0.036084,0.13986,3
0.041192,0.014754,0.0162,0.010674,0.01903,0.0115,0.036084,0.13986,3
0.043287,0.015296,0.019295,0.01227,0.019764,0.012516,0.034262,0.11306,3
0.043287,0.015296,0.019295,0.01227,0.019764,0.012516,0.034262,0.11306,3
0.043287,0.015296,0.019295,0.01227,0.019764,0.012516,0.034262,0.11306,3
0.040091,0.014406,0.019083,0.01227,0.021819,0.013456,0.039036,0.13211,3
0.042433,0.015428,0.019243,0.012103,0.020817,0.01338,0.039063,0.15772,3
0.042433,0.015428,0.019243,0.012103,0.020817,0.01338,0.039063,0.15772,3
0.03822,0.013607,0.020621,0.012103,0.020963,0.01315,0.038932,0.15888,3
0.03822,0.013607,0.020621,0.012103,0.020963,0.01315,0.038932,0.15888,3
0.036533,0.014048,0.018707,0.012837,0.021395,0.012916,0.029509,0.15084,3
0.036533,0.014048,0.018707,0.012837,0.021395,0.012916,0.029509,0.15084,3
0.032744,0.013829,0.017235,0.011588,0.021726,0.012435,0.028384,0.14564,3
0.032744,0.013829,0.017235,0.011588,0.021726,0.012435,0.028384,0.14564,3
0.036141,0.015229,0.017986,0.012187,0.019969,0.011231,0.021959,0.11832,3
0.036141,0.015229,0.017986,0.012187,0.019969,0.011231,0.021959,0.11832,3
0.033573,0.01412,0.015494,0.010956,0.018923,0.011588,0.022417,0.12243,3
0.033573,0.01412,0.015494,0.010956,0.018923,0.011588,0.022417,0.12243,3
0.033874,0.014406,0.016877,0.0087927,0.016756,0.012758,0.028204,0.13466,3
0.033874,0.014406,0.016877,0.0087927,0.016756,0.012758,0.028204,0.13466,3
0.03563,0.014476,0.019295,0.0091332,0.018923,0.010863,0.027987,0.14734,3
0.03563,0.014476,0.019295,0.0091332,0.018923,0.010863,0.027987,0.14734,3
0.030425,0.014754,0.021395,0.009674,0.019557,0.012678,0.031412,0.16748,3
0.034233,0.014823,0.021443,0.010863,0.020963,0.012916,0.029057,0.16169,3
0.034233,0.014823,0.021443,0.010863,0.020963,0.012916,0.029057,0.16169,3
0.035887,0.015162,0.026223,0.011675,0.021726,0.013532,0.028024,0.16072,3
0.035887,0.015162,0.026223,0.011675,0.021726,0.013532,0.028024,0.16072,3
0.040116,0.016388,0.025872,0.01227,0.022097,0.013304,0.025154,0.16798,3
0.044811,0.014892,0.023132,0.012019,0.022598,0.01338,0.026685,0.16599,3
0.040795,0.016388,0.024415,0.012103,0.022955,0.01315,0.023176,0.15499,3
0.040795,0.016388,0.024415,0.012103,0.022955,0.01315,0.023176,0.15499,3
0.040795,0.016388,0.024415,0.012103,0.022955,0.01315,0.023176,0.15499,3
0.043287,0.016817,0.020915,0.011231,0.022777,0.013304,0.022866,0.15805,3
0.043287,0.016817,0.020915,0.011231,0.022777,0.013304,0.022866,0.15805,3
0.043028,0.015625,0.020571,0.010863,0.022553,0.010482,0.024623,0.16223,3
0.043028,0.015625,0.020571,0.010863,0.022553,0.010482,0.024623,0.16223,3
0.032085,0.014192,0.020323,0.009674,0.020071,0.010863,0.025436,0.15135,3
0.027101,0.013532,0.017872,0.010956,0.020323,0.0095683,0.025872,0.15672,3
0.027101,0.013532,0.017872,0.010956,0.020323,0.0095683,0.025872,0.15672,3
0.02806,0.013975,0.017294,0.011321,0.020121,0.009674,0.024788,0.16178,3
0.02806,0.013975,0.017294,0.011321,0.020121,0.009674,0.024788,0.16178,3
0.022235,0.013755,0.017527,0.012678,0.020222,0.010186,0.031185,0.16352,3
0.022235,0.013755,0.017527,0.012678,0.020222,0.010186,0.031185,0.16352,3
0.021679,0.013902,0.018488,0.01315,0.020621,0.010482,0.028456,0.15414,3
0.021679,0.013902,0.018488,0.01315,0.020621,0.010482,0.028456,0.15414,3
0.027288,0.014335,0.018976,0.01338,0.022462,0.01114,0.035084,0.1671,3
0.027288,0.014335,0.018976,0.01338,0.022462,0.01114,0.035084,0.1671,3
0.029197,0.012516,0.018433,0.012019,0.022553,0.011675,0.033904,0.14791,3
0.029197,0.012516,0.018433,0.012019,0.022553,0.011675,0.033904,0.14791,3
0.03019,0.012435,0.018923,0.011411,0.021632,0.011934,0.035026,0.14536,3
0.03019,0.012435,0.018923,0.011411,0.021632,0.011934,0.035026,0.14536,3
0.030157,0.012019,0.01645,0.011231,0.020323,0.01227,0.028882,0.15028,3
0.030157,0.012019,0.01645,0.011231,0.020323,0.01227,0.028882,0.15028,3
0.030692,0.012187,0.019713,0.011848,0.020323,0.013681,0.028987,0.14994,3
0.030692,0.012187,0.019713,0.011848,0.020323,0.013681,0.028987,0.14994,3
0.030692,0.012187,0.019713,0.011848,0.020323,0.013681,0.028987,0.14994,3
0.030692,0.012187,0.019713,0.011848,0.020323,0.013681,0.028987,0.14994,3
0.030692,0.012187,0.019713,0.011848,0.020323,0.013681,0.028987,0.14994,3
0.033299,0.014823,0.021348,0.010578,0.0213,0.014192,0.027288,0.1417,3
0.033299,0.014823,0.021348,0.010578,0.0213,0.014192,0.027288,0.1417,3
0.037846,0.016011,0.021012,0.0097786,0.020522,0.01338,0.027987,0.14312,3
0.037846,0.016011,0.021012,0.0097786,0.020522,0.01338,0.027987,0.14312,3
0.039089,0.016263,0.01903,0.009674,0.02106,0.011588,0.02874,0.14129,3
0.039089,0.016263,0.01903,0.009674,0.02106,0.011588,0.02874,0.14129,3
0.033512,0.015229,0.020866,0.010086,0.02002,0.010769,0.02361,0.15477,3
0.033512,0.015229,0.020866,0.010086,0.02002,0.010769,0.02361,0.15477,3
0.03543,0.016325,0.019557,0.011231,0.018707,0.012187,0.023176,0.14691,3
0.03441,0.015162,0.019348,0.011321,0.016877,0.012435,0.02228,0.12379,3
0.03441,0.015162,0.019348,0.011321,0.016877,0.012435,0.02228,0.12379,3
0.03339,0.014616,0.017176,0.010286,0.018869,0.014616,0.026799,0.13778,3
0.03339,0.014616,0.017176,0.010286,0.018869,0.014616,0.026799,0.13778,3
0.037113,0.016074,0.017929,0.010674,0.018652,0.015755,0.030592,0.12467,3
0.037113,0.016074,0.017929,0.010674,0.018652,0.015755,0.030592,0.12467,3
0.039374,0.016388,0.017929,0.009674,0.02149,0.015162,0.033633,0.13179,3
0.039374,0.016388,0.017929,0.009674,0.02149,0.015162,0.033633,0.13179,3
0.040645,0.016817,0.016695,0.0092439,0.024164,0.014048,0.033329,0.14397,3
0.040645,0.016817,0.016695,0.0092439,0.024164,0.014048,0.033329,0.14397,3
0.042672,0.015755,0.017352,0.009674,0.022643,0.01227,0.03262,0.13595,3
0.042672,0.015755,0.017352,0.009674,0.022643,0.01227,0.03262,0.13595,3
0.046021,0.016325,0.023953,0.010086,0.022051,0.012995,0.030258,0.16222,3
0.046021,0.016325,0.023953,0.010086,0.022051,0.012995,0.030258,0.16222,3
0.045218,0.017235,0.02391,0.012103,0.023307,0.014476,0.037576,0.18834,3
0.045218,0.017235,0.02391,0.012103,0.023307,0.014476,0.037576,0.18834,3
0.05055,0.017527,0.026723,0.011411,0.02149,0.013681,0.036975,0.18247,3
0.05055,0.017527,0.026723,0.011411,0.02149,0.013681,0.036975,0.18247,3
0.050288,0.017411,0.027138,0.011934,0.017986,0.014546,0.036838,0.19489,3
0.050288,0.017411,0.027138,0.011934,0.017986,0.014546,0.036838,0.19489,3
0.04542,0.017235,0.021156,0.012837,0.019713,0.013975,0.039759,0.17014,3
0.04542,0.017235,0.021156,0.012837,0.019713,0.013975,0.039759,0.17014,3
0.042672,0.016325,0.020866,0.012103,0.019137,0.01114,0.030857,0.16425,3
0.042672,0.016325,0.020866,0.012103,0.019137,0.01114,0.030857,0.16425,3
0.0394,0.014823,0.018597,0.011411,0.018488,0.012353,0.032837,0.15089,3
0.0394,0.014823,0.018597,0.011411,0.018488,0.012353,0.032837,0.15089,3
0.030392,0.013073,0.018211,0.012678,0.018869,0.013304,0.035229,0.15494,3
0.034529,0.012758,0.017527,0.011411,0.020472,0.014335,0.036393,0.13853,3
0.034529,0.012758,0.017527,0.011411,0.020472,0.014335,0.036393,0.13853,3
0.033542,0.012435,0.020472,0.011934,0.019867,0.014616,0.031542,0.14426,3
0.033542,0.012435,0.020472,0.011934,0.019867,0.014616,0.031542,0.14426,3
0.037684,0.012516,0.021772,0.013073,0.018042,0.015296,0.031283,0.13928,3
0.037684,0.012516,0.021772,0.013073,0.018042,0.015296,0.031283,0.13928,3
0.039451,0.012916,0.018098,0.012916,0.019137,0.014823,0.034114,0.14617,3
0.039451,0.012916,0.018098,0.012916,0.019137,0.014823,0.034114,0.14617,3
0.036253,0.012353,0.019816,0.014264,0.019083,0.016573,0.031185,0.14078,3
0.036253,0.012353,0.019816,0.014264,0.019083,0.016573,0.031185,0.14078,3
0.030592,0.013304,0.020522,0.014685,0.018433,0.015229,0.032401,0.15993,3
0.030592,0.013304,0.020522,0.014685,0.018433,0.015229,0.032401,0.15993,3
0.030824,0.012597,0.017701,0.01496,0.019609,0.014685,0.033238,0.14077,3
0.030824,0.012597,0.017701,0.01496,0.019609,0.014685,0.033238,0.14077,3
0.023868,0.013755,0.017057,0.014823,0.020963,0.01412,0.033964,0.14807,3
0.023868,0.013755,0.017057,0.014823,0.020963,0.01412,0.033964,0.14807,3
0.030592,0.013755,0.020172,0.013228,0.02002,0.015362,0.035688,0.15347,3
0.030592,0.013755,0.020172,0.013228,0.02002,0.015362,0.035688,0.15347,3
0.02842,0.013681,0.018707,0.012597,0.018042,0.014476,0.033176,0.16597,3
0.02842,0.013681,0.018707,0.012597,0.018042,0.014476,0.033176,0.16597,3
0.028598,0.01412,0.017585,0.01114,0.020121,0.015625,0.03293,0.15213,3
0.028598,0.01412,0.017585,0.01114,0.020121,0.015625,0.03293,0.15213,3
0.036865,0.015494,0.018597,0.010086,0.020768,0.015625,0.035286,0.15512,3
0.036865,0.015494,0.018597,0.010086,0.020768,0.015625,0.035286,0.15512,3
0.03692,0.014335,0.018377,0.010186,0.020373,0.015028,0.033176,0.14096,3
0.03692,0.014335,0.018377,0.010186,0.020373,0.015028,0.033176,0.14096,3
0.04072,0.013607,0.017701,0.013755,0.019295,0.014048,0.033512,0.1452,3
0.04072,0.013607,0.017701,0.013755,0.019295,0.014048,0.033512,0.1452,3
0.041999,0.013073,0.016997,0.014048,0.017176,0.013755,0.033421,0.17449,3
0.041999,0.013073,0.016997,0.014048,0.017176,0.013755,0.033421,0.17449,3
0.039785,0.011762,0.015296,0.01412,0.01645,0.012353,0.042192,0.18943,3
0.039785,0.011762,0.015296,0.01412,0.01645,0.012353,0.042192,0.18943,3
0.037467,0.011049,0.017585,0.017585,0.019969,0.011762,0.039887,0.18596,3
0.041266,0.012678,0.018488,0.018923,0.019243,0.013607,0.044902,0.1789,3
0.041266,0.012678,0.018488,0.018923,0.019243,0.013607,0.044902,0.1789,3
0.041266,0.012678,0.018488,0.018923,0.019243,0.013607,0.044902,0.1789,3
0.035459,0.012435,0.017294,0.016817,0.020866,0.014264,0.045777,0.14746,3
0.035459,0.012435,0.017294,0.016817,0.020866,0.014264,0.045777,0.14746,3
0.038406,0.015162,0.022189,0.017352,0.021204,0.014476,0.039862,0.16853,3
0.036727,0.016511,0.019816,0.014685,0.023307,0.014335,0.042457,0.15902,3
0.036727,0.016511,0.019816,0.014685,0.023307,0.014335,0.042457,0.15902,3
0.036727,0.016511,0.019816,0.014685,0.023307,0.014335,0.042457,0.15902,3
0.028917,0.013532,0.020963,0.012019,0.011588,0.020522,0.057108,0.11366,3
0.02842,0.01114,0.019713,0.012019,0.011934,0.021585,0.065473,0.11839,3
0.02842,0.01114,0.019713,0.012019,0.011934,0.021585,0.065473,0.11839,3
0.027026,0.009674,0.021012,0.012187,0.011848,0.020472,0.065271,0.12113,3
0.027026,0.009674,0.021012,0.012187,0.011848,0.020472,0.065271,0.12113,3
0.030692,0.012758,0.020866,0.011848,0.012103,0.019137,0.069483,0.14633,3
0.030692,0.012758,0.020866,0.011848,0.012103,0.019137,0.069483,0.14633,3
0.028096,0.013456,0.017527,0.011848,0.012678,0.015947,0.070197,0.1587,3
0.028096,0.013456,0.017527,0.011848,0.012678,0.015947,0.070197,0.1587,3
0.026532,0.014048,0.021156,0.011934,0.012187,0.015755,0.059224,0.1601,3
0.024037,0.014476,0.021204,0.009674,0.010578,0.014616,0.056481,0.15136,3
0.024037,0.014476,0.021204,0.009674,0.010578,0.014616,0.056481,0.15136,3
0.025516,0.014335,0.022005,0.0086762,0.0115,0.018155,0.060683,0.16089,3
0.025516,0.014335,0.022005,0.0086762,0.0115,0.018155,0.060683,0.16089,3
0.021348,0.012837,0.021632,0.0087927,0.011049,0.019137,0.054314,0.16223,3
0.021348,0.012837,0.021632,0.0087927,0.011049,0.019137,0.054314,0.16223,3
0.026068,0.011762,0.021772,0.0092439,0.010482,0.019661,0.049266,0.14612,3
0.026068,0.011762,0.021772,0.0092439,0.010482,0.019661,0.049266,0.14612,3
0.024992,0.011762,0.019867,0.010086,0.0115,0.019918,0.049369,0.14773,3
0.024992,0.011762,0.019867,0.010086,0.0115,0.019918,0.049369,0.14773,3
0.024332,0.010863,0.019401,0.011411,0.010863,0.02002,0.051999,0.15687,3
0.024332,0.010863,0.019401,0.011411,0.010863,0.02002,0.051999,0.15687,3
0.020621,0.01114,0.015162,0.011411,0.0115,0.018155,0.046043,0.12865,3
0.020621,0.01114,0.015162,0.011411,0.0115,0.018155,0.046043,0.12865,3
0.020422,0.010186,0.015755,0.010956,0.010674,0.018322,0.038459,0.13645,3
0.020422,0.010186,0.015755,0.010956,0.010674,0.018322,0.038459,0.13645,3
0.01903,0.010769,0.013829,0.010863,0.012019,0.018597,0.044538,0.14531,3
0.01903,0.010769,0.013829,0.010863,0.012019,0.018597,0.044538,0.14531,3
0.020768,0.011231,0.020172,0.011588,0.012019,0.01919,0.046461,0.13504,3
0.020768,0.011231,0.020172,0.011588,0.012019,0.01919,0.046461,0.13504,3
0.023176,0.011049,0.020172,0.011231,0.012516,0.017701,0.050409,0.1421,3
0.023176,0.011049,0.020172,0.011231,0.012516,0.017701,0.050409,0.1421,3
0.023953,0.011934,0.019713,0.012019,0.011934,0.016997,0.05053,0.13721,3
0.023953,0.011934,0.019713,0.012019,0.011934,0.016997,0.05053,0.13721,3
0.024869,0.013681,0.019661,0.011231,0.010286,0.015095,0.056535,0.1385,3
0.024869,0.013681,0.019661,0.011231,0.010286,0.015095,0.056535,0.1385,3
0.023953,0.014264,0.021395,0.010863,0.009674,0.016137,0.054725,0.12874,3
0.023953,0.014264,0.021395,0.010863,0.009674,0.016137,0.054725,0.12874,3
0.024788,0.015095,0.015296,0.010482,0.010578,0.015819,0.050591,0.12358,3
0.024788,0.015095,0.015296,0.010482,0.010578,0.015819,0.050591,0.12358,3
0.024457,0.013975,0.016573,0.011049,0.012758,0.018266,0.051151,0.12581,3
0.024457,0.013975,0.016573,0.011049,0.012758,0.018266,0.051151,0.12581,3
0.025195,0.013975,0.020915,0.011411,0.012837,0.021348,0.050308,0.11834,3
0.025195,0.013975,0.020915,0.011411,0.012837,0.021348,0.050308,0.11834,3
0.02806,0.013829,0.022326,0.011934,0.01227,0.022051,0.04324,0.11421,3
0.02806,0.013829,0.022326,0.011934,0.01227,0.022051,0.04324,0.11421,3
0.026608,0.013073,0.020768,0.011848,0.01315,0.022235,0.055187,0.11039,3
0.026608,0.013073,0.020768,0.011848,0.01315,0.022235,0.055187,0.11039,3
0.030857,0.014476,0.02228,0.011231,0.012597,0.022955,0.055811,0.13666,3
0.030857,0.014476,0.02228,0.011231,0.012597,0.022955,0.055811,0.13666,3
0.034646,0.01496,0.021726,0.010482,0.011675,0.019867,0.060364,0.14773,3
0.034646,0.01496,0.021726,0.010482,0.011675,0.019867,0.060364,0.14773,3
0.034262,0.013902,0.016325,0.0094614,0.011321,0.017469,0.068212,0.14808,3
0.034262,0.013902,0.016325,0.0094614,0.011321,0.017469,0.068212,0.14808,3
0.031087,0.013902,0.01496,0.0093533,0.012187,0.017116,0.066337,0.16556,3
0.031087,0.013902,0.01496,0.0093533,0.012187,0.017116,0.066337,0.16556,3
0.028024,0.012187,0.013975,0.0095683,0.012837,0.015229,0.058429,0.16388,3
0.028024,0.012187,0.013975,0.0095683,0.012837,0.015229,0.058429,0.16388,3
0.020323,0.012995,0.011675,0.0094614,0.013073,0.0162,0.063868,0.16623,3
0.020323,0.012995,0.011675,0.0094614,0.013073,0.0162,0.063868,0.16623,3
0.017527,0.012916,0.010956,0.0086762,0.01338,0.018211,0.06006,0.1531,3
0.017527,0.012916,0.010956,0.0086762,0.01338,0.018211,0.06006,0.1531,3
0.016511,0.012995,0.0099845,0.0087927,0.013228,0.020272,0.048747,0.15599,3
0.023739,0.01227,0.010769,0.0092439,0.012758,0.02002,0.059737,0.13309,3
0.023739,0.01227,0.010769,0.0092439,0.012758,0.02002,0.059737,0.13309,3
0.023739,0.01227,0.010769,0.0092439,0.012758,0.02002,0.059737,0.13309,3
0.022235,0.011762,0.014192,0.0085582,0.012187,0.020522,0.06065,0.12901,3
0.023176,0.011848,0.013755,0.0087927,0.010674,0.02002,0.051959,0.11595,3
0.023176,0.011848,0.013755,0.0087927,0.010674,0.02002,0.051959,0.11595,3
0.032053,0.011321,0.013073,0.0091332,0.011848,0.017116,0.060733,0.11461,3
0.032053,0.011321,0.013073,0.0091332,0.011848,0.017116,0.060733,0.11461,3
0.031702,0.011675,0.013755,0.0091332,0.011762,0.017986,0.062435,0.1303,3
0.031702,0.011675,0.013755,0.0091332,0.011762,0.017986,0.062435,0.1303,3
0.027621,0.011762,0.013829,0.009674,0.011321,0.015947,0.056029,0.12412,3
0.027621,0.011762,0.013829,0.009674,0.011321,0.015947,0.056029,0.12412,3
0.03563,0.014823,0.011049,0.011321,0.010956,0.015625,0.055445,0.11406,3
0.03563,0.014823,0.011049,0.011321,0.010956,0.015625,0.055445,0.11406,3
0.03725,0.016997,0.012353,0.010482,0.013228,0.016263,0.05621,0.14901,3
0.03725,0.016997,0.012353,0.010482,0.013228,0.016263,0.05621,0.14901,3
0.032682,0.017527,0.013681,0.010384,0.011762,0.018098,0.052311,0.14879,3
0.032682,0.017527,0.013681,0.010384,0.011762,0.018098,0.052311,0.14879,3
0.03563,0.017986,0.013532,0.010286,0.011231,0.018815,0.053083,0.15517,3
0.03563,0.017986,0.013532,0.010286,0.011231,0.018815,0.053083,0.15517,3
0.031958,0.016011,0.0162,0.010674,0.011321,0.019816,0.052174,0.1508,3
0.031958,0.016011,0.0162,0.010674,0.011321,0.019816,0.052174,0.1508,3
0.029509,0.015819,0.015755,0.011231,0.012019,0.020621,0.052369,0.1541,3
0.029509,0.015819,0.015755,0.011231,0.012019,0.020621,0.052369,0.1541,3
0.027063,0.012995,0.015494,0.012103,0.010674,0.020866,0.059104,0.13634,3
0.027063,0.012995,0.015494,0.012103,0.010674,0.020866,0.059104,0.13634,3
0.028024,0.013073,0.015162,0.01227,0.01227,0.019867,0.057126,0.13775,3
0.028024,0.013073,0.015162,0.01227,0.01227,0.019867,0.057126,0.13775,3
0.027768,0.01338,0.017527,0.01227,0.012678,0.01919,0.049266,0.14337,3
0.027768,0.01338,0.017527,0.01227,0.012678,0.01919,0.049266,0.14337,3
0.02842,0.013607,0.014048,0.011321,0.012916,0.019083,0.053312,0.17228,3
0.02842,0.013607,0.014048,0.011321,0.012916,0.019083,0.053312,0.17228,3
0.029612,0.014264,0.014048,0.010578,0.013228,0.020571,0.054127,0.1716,3
0.029612,0.014264,0.014048,0.010578,0.013228,0.020571,0.054127,0.1716,3
0.032432,0.015229,0.015229,0.010384,0.012516,0.022326,0.050811,0.19177,3
0.032432,0.015229,0.015229,0.010384,0.012516,0.022326,0.050811,0.19177,3
0.030692,0.01315,0.01338,0.010578,0.010674,0.022051,0.051803,0.18764,3
0.030692,0.01315,0.01338,0.010578,0.010674,0.022051,0.051803,0.18764,3
0.030425,0.012353,0.012103,0.011848,0.010578,0.022051,0.056427,0.15844,3
0.030425,0.012353,0.012103,0.011848,0.010578,0.022051,0.056427,0.15844,3
0.029543,0.011675,0.011675,0.011411,0.0093533,0.019453,0.052291,0.16113,3
0.029543,0.011675,0.011675,0.011411,0.0093533,0.019453,0.052291,0.16113,3
0.032992,0.011231,0.014264,0.010578,0.0093533,0.019713,0.04694,0.15852,3
0.032992,0.011231,0.014264,0.010578,0.0093533,0.019713,0.04694,0.15852,3
0.031735,0.0092439,0.012837,0.010674,0.0091332,0.015296,0.043963,0.13865,3
0.031735,0.0092439,0.012837,0.010674,0.0091332,0.015296,0.043963,0.13865,3
0.032022,0.0092439,0.012758,0.0095683,0.0093533,0.014476,0.05057,0.13957,3
0.032022,0.0092439,0.012758,0.0095683,0.0093533,0.014476,0.05057,0.13957,3
0.034822,0.010384,0.011675,0.0087927,0.010863,0.015162,0.046197,0.13775,3
0.034822,0.010384,0.011675,0.0087927,0.010863,0.015162,0.046197,0.13775,3
0.032526,0.010863,0.013607,0.0090211,0.011588,0.015883,0.045866,0.1454,3
0.032526,0.010863,0.013607,0.0090211,0.011588,0.015883,0.045866,0.1454,3
0.033694,0.010769,0.01227,0.010286,0.012435,0.018543,0.063067,0.14762,3
0.033694,0.010769,0.01227,0.010286,0.012435,0.018543,0.063067,0.14762,3
0.03447,0.0115,0.011848,0.010769,0.012516,0.01919,0.060566,0.15726,3
0.03447,0.0115,0.011848,0.010769,0.012516,0.01919,0.060566,0.15726,3
0.032806,0.011675,0.018098,0.011411,0.010956,0.019295,0.061928,0.14589,3
0.032806,0.011675,0.018098,0.011411,0.010956,0.019295,0.061928,0.14589,3
0.036141,0.01338,0.018322,0.012435,0.011848,0.020222,0.062663,0.1543,3
0.036028,0.012837,0.018923,0.012353,0.012516,0.019816,0.06569,0.14822,3
0.036028,0.012837,0.018923,0.012353,0.012516,0.019816,0.06569,0.14822,3
0.033603,0.013228,0.019609,0.012187,0.012516,0.021252,0.063164,0.12075,3
0.033603,0.013228,0.019609,0.012187,0.012516,0.021252,0.063164,0.12075,3
0.032401,0.011934,0.017469,0.012435,0.012353,0.02228,0.064281,0.12452,3
0.032401,0.011934,0.017469,0.012435,0.012353,0.02228,0.064281,0.12452,3
0.023654,0.010578,0.01338,0.012597,0.013073,0.021204,0.060666,0.10452,3
0.023567,0.010578,0.013829,0.011675,0.011321,0.020172,0.062841,0.11995,3
0.023567,0.010578,0.013829,0.011675,0.011321,0.020172,0.062841,0.11995,3
0.026988,0.010186,0.011934,0.01315,0.010482,0.017643,0.046175,0.12985,3
0.026988,0.010186,0.011934,0.01315,0.010482,0.017643,0.046175,0.12985,3
0.026799,0.01114,0.017527,0.011762,0.011231,0.018433,0.042862,0.14297,3
0.026799,0.01114,0.017527,0.011762,0.011231,0.018433,0.042862,0.14297,3
0.027695,0.012019,0.019713,0.011934,0.012353,0.019401,0.052408,0.14189,3
0.027695,0.012019,0.019713,0.011934,0.012353,0.019401,0.052408,0.14189,3
0.028241,0.011588,0.022911,0.0115,0.011588,0.019713,0.048454,0.14161,3
0.028241,0.011588,0.022911,0.0115,0.011588,0.019713,0.048454,0.14161,3
0.026837,0.010769,0.022732,0.0115,0.011321,0.01919,0.066872,0.121,3
0.026837,0.010769,0.022732,0.0115,0.011321,0.01919,0.066872,0.121,3
0.026799,0.012187,0.023438,0.0097786,0.011675,0.016074,0.066689,0.133,3
