0.031542,0.01556,0.025154,0.012019,0.01315,0.016877,0.046766,0.1413,-90
0.030658,0.015819,0.025595,0.014823,0.012103,0.015883,0.042192,0.17213,-90
0.028705,0.01645,0.02408,0.015229,0.01412,0.01645,0.052038,0.18071,-90
0.028705,0.01645,0.02408,0.015229,0.01412,0.01645,0.052038,0.18071,-90
0.029022,0.01556,0.02429,0.014406,0.014264,0.016263,0.053006,0.18193,-90
0.021012,0.015428,0.023524,0.013607,0.01496,0.016817,0.056499,0.18375,-90
0.021012,0.015428,0.023524,0.013607,0.01496,0.016817,0.056499,0.18375,-90
0.021348,0.015819,0.025832,0.010956,0.012916,0.015296,0.0608,0.18093,-90
0.021348,0.015819,0.025832,0.010956,0.012916,0.015296,0.0608,0.18093,-90
0.019083,0.014476,0.024581,0.010186,0.011411,0.013228,0.04978,0.16085,-90
0.019083,0.014476,0.024581,0.010186,0.011411,0.013228,0.04978,0.16085,-90
0.022866,0.017701,0.024788,0.011049,0.010956,0.01315,0.05047,0.15643,-90
0.022866,0.017701,0.024788,0.011049,0.010956,0.01315,0.05047,0.15643,-90
0.022866,0.017701,0.024788,0.011049,0.010956,0.01315,0.05047,0.15643,-90
0.023176,0.018322,0.02429,0.010769,0.010956,0.014476,0.05335,0.16046,-90
0.021866,0.017116,0.02408,0.011675,0.010286,0.013228,0.054333,0.1604,-90
0.021866,0.017116,0.02408,0.011675,0.010286,0.013228,0.054333,0.1604,-90
0.022643,0.016011,0.015494,0.010769,0.010863,0.013456,0.049616,0.13858,-90
0.022643,0.016011,0.015494,0.010769,0.010863,0.013456,0.049616,0.13858,-90
0.025754,0.013975,0.023219,0.011848,0.011848,0.014264,0.042624,0.10298,-90
0.025754,0.013975,0.023219,0.011848,0.011848,0.014264,0.042624,0.10298,-90
0.019401,0.011934,0.0213,0.011231,0.011588,0.012995,0.036477,0.10275,-90
0.019401,0.011934,0.0213,0.011231,0.011588,0.012995,0.036477,0.10275,-90
0.01903,0.011321,0.025436,0.010769,0.013975,0.012758,0.037738,0.10971,-90
0.01903,0.011321,0.025436,0.010769,0.013975,0.012758,0.037738,0.10971,-90
0.02408,0.012995,0.023219,0.012678,0.015162,0.014892,0.036,0.11332,-90
0.02408,0.012995,0.023219,0.012678,0.015162,0.014892,0.036,0.11332,-90
0.025555,0.012995,0.020817,0.012758,0.013829,0.014892,0.042862,0.13514,-90
0.025555,0.012995,0.020817,0.012758,0.013829,0.014892,0.042862,0.13514,-90
0.025555,0.012995,0.020817,0.012758,0.013829,0.014892,0.042862,0.13514,-90
0.025635,0.013228,0.01903,0.012435,0.011934,0.014335,0.040014,0.14063,-90
0.025635,0.013228,0.01903,0.012435,0.011934,0.014335,0.040014,0.14063,-90
0.027621,0.012995,0.020571,0.012103,0.012516,0.013829,0.04401,0.15809,-90
0.027621,0.012995,0.020571,0.012103,0.012516,0.013829,0.04401,0.15809,-90
0.023481,0.011762,0.023351,0.010863,0.011049,0.012516,0.055811,0.16906,-90
0.023481,0.011762,0.023351,0.010863,0.011049,0.012516,0.055811,0.16906,-90
0.02454,0.011231,0.023394,0.011934,0.011411,0.012019,0.057481,0.17652,-90
0.02454,0.011231,0.023394,0.011934,0.011411,0.012019,0.057481,0.17652,-90
0.026799,0.012019,0.01919,0.011934,0.012103,0.013755,0.059447,0.16603,-90
0.026799,0.012019,0.01919,0.011934,0.012103,0.013755,0.059447,0.16603,-90
0.026799,0.012019,0.01919,0.011934,0.012103,0.013755,0.059447,0.16603,-90
0.027138,0.014048,0.021012,0.012597,0.011411,0.014754,0.043217,0.16385,-90
0.027138,0.014048,0.021012,0.012597,0.011411,0.014754,0.043217,0.16385,-90
0.022643,0.012995,0.02454,0.012678,0.012187,0.0162,0.03763,0.1454,-90
0.022643,0.012995,0.02454,0.012678,0.012187,0.0162,0.03763,0.1454,-90
0.022643,0.012995,0.02454,0.012678,0.012187,0.0162,0.03763,0.1454,-90
0.027658,0.015947,0.028241,0.012995,0.011049,0.016388,0.041019,0.17255,-90
0.027658,0.015947,0.028241,0.012995,0.011049,0.016388,0.041019,0.17255,-90
0.029681,0.016137,0.02361,0.011762,0.011231,0.015883,0.039296,0.16351,-90
0.029681,0.016137,0.02361,0.011762,0.011231,0.015883,0.039296,0.16351,-90
0.034084,0.016695,0.028952,0.011675,0.012516,0.01569,0.045263,0.15862,-90
0.034084,0.016695,0.028952,0.011675,0.012516,0.01569,0.045263,0.15862,-90
0.029817,0.017057,0.023868,0.012837,0.014476,0.016756,0.046679,0.14294,-90
0.029817,0.017057,0.023868,0.012837,0.014476,0.016756,0.046679,0.14294,-90
0.029817,0.017057,0.023868,0.012837,0.014476,0.016756,0.046679,0.14294,-90
0.028527,0.01569,0.024581,0.012678,0.014335,0.016573,0.052949,0.11305,-90
0.028527,0.01569,0.024581,0.012678,0.014335,0.016573,0.052949,0.11305,-90
0.027585,0.013755,0.024623,0.012758,0.013456,0.015095,0.056481,0.1304,-90
0.027585,0.013755,0.024623,0.012758,0.013456,0.015095,0.056481,0.1304,-90
0.026875,0.013228,0.015755,0.011848,0.011411,0.014476,0.055463,0.13032,-90
0.026875,0.013228,0.015755,0.011848,0.011411,0.014476,0.055463,0.13032,-90
0.028598,0.013755,0.017643,0.013532,0.012758,0.015162,0.055956,0.15471,-90
0.028598,0.013755,0.017643,0.013532,0.012758,0.015162,0.055956,0.15471,-90
0.033482,0.015755,0.018042,0.014685,0.015095,0.018042,0.054725,0.17035,-90
0.033482,0.015755,0.018042,0.014685,0.015095,0.018042,0.054725,0.17035,-90
0.036616,0.01556,0.025476,0.013681,0.015362,0.017057,0.051369,0.18052,-90
0.036616,0.01556,0.025476,0.013681,0.015362,0.017057,0.051369,0.18052,-90
0.036616,0.01556,0.025476,0.013681,0.015362,0.017057,0.051369,0.18052,-90
0.032868,0.018042,0.024829,0.012187,0.012019,0.014476,0.053331,0.18975,-90
0.032868,0.018042,0.024829,0.012187,0.012019,0.014476,0.053331,0.18975,-90
0.032243,0.017872,0.018377,0.012995,0.01338,0.016573,0.056786,0.19099,-90
0.032243,0.017872,0.018377,0.012995,0.01338,0.016573,0.056786,0.19099,-90
0.029817,0.016756,0.018042,0.012353,0.013681,0.015162,0.061598,0.17757,-90
0.029817,0.016756,0.018042,0.012353,0.013681,0.015162,0.061598,0.17757,-90
0.029817,0.016756,0.018042,0.012353,0.013681,0.015162,0.061598,0.17757,-90
0.029371,0.015162,0.022326,0.010086,0.015625,0.016263,0.059464,0.17594,-90
0.033482,0.015625,0.020719,0.010384,0.014823,0.016263,0.053274,0.17131,-90
0.033482,0.015625,0.020719,0.010384,0.014823,0.016263,0.053274,0.17131,-90
0.033482,0.015625,0.020719,0.010384,0.014823,0.016263,0.053274,0.17131,-90
0.035602,0.017294,0.02874,0.010186,0.014892,0.016695,0.06488,0.19018,-90
0.035602,0.017294,0.02874,0.010186,0.014892,0.016695,0.06488,0.19018,-90
0.034822,0.017585,0.025754,0.011675,0.016074,0.019867,0.056102,0.2307,-90
0.034822,0.017585,0.025754,0.011675,0.016074,0.019867,0.056102,0.2307,-90
0.033874,0.017176,0.024951,0.012103,0.014546,0.020472,0.059532,0.22026,-90
0.033874,0.017176,0.024951,0.012103,0.014546,0.020472,0.059532,0.22026,-90
0.028882,0.016011,0.020373,0.012758,0.014406,0.020817,0.057286,0.2233,-90
0.028882,0.016011,0.020373,0.012758,0.014406,0.020817,0.057286,0.2233,-90
0.023739,0.015028,0.020071,0.013975,0.014823,0.018707,0.042648,0.20005,-90
0.023739,0.015028,0.020071,0.013975,0.014823,0.018707,0.042648,0.20005,-90
0.026185,0.014616,0.027176,0.013456,0.012837,0.015162,0.058931,0.12829,-90
0.026185,0.014616,0.027176,0.013456,0.012837,0.015162,0.058931,0.12829,-90
0.027695,0.015229,0.025315,0.013755,0.013829,0.012995,0.058637,0.15482,-90
0.027695,0.015229,0.025315,0.013755,0.013829,0.012995,0.058637,0.15482,-90
0.031862,0.019713,0.034968,0.014406,0.01412,0.01338,0.0608,0.16365,-90
0.031862,0.019713,0.034968,0.014406,0.01412,0.01338,0.0608,0.16365,-90
0.033023,0.019453,0.032744,0.012758,0.012837,0.015296,0.061068,0.16625,-90
0.033023,0.019453,0.032744,0.012758,0.012837,0.015296,0.061068,0.16625,-90
0.033023,0.019453,0.032744,0.012758,0.012837,0.015296,0.061068,0.16625,-90
0.034292,0.021012,0.029886,0.012516,0.012597,0.01645,0.051111,0.18185,-90
0.034292,0.021012,0.029886,0.012516,0.012597,0.01645,0.051111,0.18185,-90
0.035113,0.022598,0.031542,0.011848,0.011762,0.018211,0.049534,0.16784,-90
0.035113,0.022598,0.031542,0.011848,0.011762,0.018211,0.049534,0.16784,-90
0.030824,0.018652,0.021679,0.010863,0.012516,0.018707,0.050329,0.18987,-90
0.030824,0.018652,0.021679,0.010863,0.012516,0.018707,0.050329,0.18987,-90
0.031054,0.01919,0.027511,0.012435,0.012187,0.01903,0.052213,0.2015,-90
0.031054,0.01919,0.027511,0.012435,0.012187,0.01903,0.052213,0.2015,-90
0.025516,0.016695,0.026417,0.012995,0.012678,0.018211,0.047242,0.19785,-90
0.025516,0.016695,0.026417,0.012995,0.012678,0.018211,0.047242,0.19785,-90
0.025516,0.016695,0.026417,0.012995,0.012678,0.018211,0.047242,0.19785,-90
0.024951,0.013304,0.021772,0.013532,0.012516,0.017116,0.05235,0.16414,-90
0.024951,0.013304,0.021772,0.013532,0.012516,0.017116,0.05235,0.16414,-90
0.028846,0.011321,0.016573,0.014048,0.012916,0.018707,0.054688,0.2175,-90
0.028846,0.011321,0.016573,0.014048,0.012916,0.018707,0.054688,0.2175,-90
0.028846,0.011321,0.016573,0.014048,0.012916,0.018707,0.054688,0.2175,-90
0.029646,0.013073,0.015883,0.012995,0.01412,0.017929,0.051547,0.21187,-90
0.029646,0.013073,0.015883,0.012995,0.01412,0.017929,0.051547,0.21187,-90
0.029646,0.013073,0.015883,0.012995,0.01412,0.017929,0.051547,0.21187,-90
0.032432,0.012758,0.015625,0.012353,0.014685,0.016573,0.061648,0.22477,-90
0.031348,0.013456,0.02408,0.011588,0.015755,0.016997,0.058289,0.21568,-90
0.031348,0.013456,0.02408,0.011588,0.015755,0.016997,0.058289,0.21568,-90
0.031348,0.013456,0.02408,0.011588,0.015755,0.016997,0.058289,0.21568,-90
0.034851,0.018976,0.02454,0.012187,0.015362,0.017176,0.05121,0.18692,-90
0.034851,0.018976,0.02454,0.012187,0.015362,0.017176,0.05121,0.18692,-90
0.034851,0.018976,0.02454,0.012187,0.015362,0.017176,0.05121,0.18692,-90
0.030625,0.017235,0.02361,0.012516,0.01338,0.014048,0.050308,0.15017,-90
0.030625,0.017235,0.02361,0.012516,0.01338,0.014048,0.050308,0.15017,-90
0.029232,0.017815,0.026913,0.011762,0.013304,0.015362,0.053541,0.15874,-90
0.029232,0.017815,0.026913,0.011762,0.013304,0.015362,0.053541,0.15874,-90
0.029232,0.017815,0.026913,0.011762,0.013304,0.015362,0.053541,0.15874,-90
0.025555,0.016997,0.019918,0.01338,0.011934,0.015296,0.054706,0.14559,-90
0.025555,0.016997,0.019918,0.01338,0.011934,0.015296,0.054706,0.14559,-90
0.026913,0.017585,0.023088,0.013532,0.011848,0.015095,0.051901,0.13511,-90
0.026913,0.017585,0.023088,0.013532,0.011848,0.015095,0.051901,0.13511,-90
0.024248,0.012597,0.022955,0.011675,0.012916,0.015229,0.058219,0.14032,-90
0.024248,0.012597,0.022955,0.011675,0.012916,0.015229,0.058219,0.14032,-90
0.030089,0.012758,0.017469,0.011848,0.014476,0.01556,0.057763,0.12961,-90
0.030089,0.012758,0.017469,0.011848,0.014476,0.01556,0.057763,0.12961,-90
0.031477,0.012435,0.018597,0.0097786,0.014406,0.01338,0.05314,0.13853,-90
0.031477,0.012435,0.018597,0.0097786,0.014406,0.01338,0.05314,0.13853,-90
0.031477,0.012435,0.018597,0.0097786,0.014406,0.01338,0.05314,0.13853,-90
0.032682,0.014048,0.022462,0.010286,0.015428,0.016997,0.052814,0.14316,-90
0.032682,0.014048,0.022462,0.010286,0.015428,0.016997,0.052814,0.14316,-90
0.032682,0.014048,0.022462,0.010286,0.015428,0.016997,0.052814,0.14316,-90
0.025476,0.01114,0.018869,0.011588,0.010186,0.01227,0.044148,0.18777,0
0.033176,0.015229,0.018155,0.010286,0.010384,0.012597,0.033115,0.1751,0
0.033176,0.015229,0.018155,0.010286,0.010384,0.012597,0.033115,0.1751,0
0.036365,0.017235,0.019083,0.0095683,0.010956,0.01315,0.032212,0.16554,0
0.036365,0.017235,0.019083,0.0095683,0.010956,0.01315,0.032212,0.16554,0
0.036365,0.017235,0.019083,0.0095683,0.010956,0.01315,0.032212,0.16554,0
0.036365,0.017235,0.019083,0.0095683,0.010956,0.01315,0.032212,0.16554,0
0.036365,0.017235,0.019083,0.0095683,0.010956,0.01315,0.032212,0.16554,0
0.036365,0.017235,0.019083,0.0095683,0.010956,0.01315,0.032212,0.16554,0
0.036365,0.017235,0.019083,0.0095683,0.010956,0.01315,0.032212,0.16554,0
0.036365,0.017235,0.019083,0.0095683,0.010956,0.01315,0.032212,0.16554,0
0.036365,0.017235,0.019083,0.0095683,0.010956,0.01315,0.032212,0.16554,0
0.037899,0.017176,0.020172,0.010186,0.011049,0.012187,0.034646,0.16639,0
0.037899,0.017176,0.020172,0.010186,0.011049,0.012187,0.034646,0.16639,0
0.037899,0.017176,0.020172,0.010186,0.011049,0.012187,0.034646,0.16639,0
0.037386,0.016325,0.018377,0.0095683,0.010482,0.01227,0.033904,0.1234,0
0.037386,0.016325,0.018377,0.0095683,0.010482,0.01227,0.033904,0.1234,0
0.037386,0.016325,0.018377,0.0095683,0.010482,0.01227,0.033904,0.1234,0
0.03798,0.017352,0.016695,0.0115,0.011588,0.014685,0.037222,0.12812,0
0.03798,0.017352,0.016695,0.0115,0.011588,0.014685,0.037222,0.12812,0
0.03798,0.017352,0.016695,0.0115,0.011588,0.014685,0.037222,0.12812,0
0.03798,0.017352,0.016695,0.0115,0.011588,0.014685,0.037222,0.12812,0
0.03798,0.017352,0.016695,0.0115,0.011588,0.014685,0.037222,0.12812,0
0.03798,0.017352,0.016695,0.0115,0.011588,0.014685,0.037222,0.12812,0
0.032775,0.01645,0.014476,0.013228,0.011848,0.01338,0.035573,0.12749,0
0.032775,0.01645,0.014476,0.013228,0.011848,0.01338,0.035573,0.12749,0
0.032775,0.01645,0.014476,0.013228,0.011848,0.01338,0.035573,0.12749,0
0.037899,0.016573,0.015095,0.012353,0.012837,0.011934,0.028952,0.11625,0
0.037899,0.016573,0.015095,0.012353,0.012837,0.011934,0.028952,0.11625,0
0.037899,0.016573,0.015095,0.012353,0.012837,0.011934,0.028952,0.11625,0
0.037899,0.016573,0.015095,0.012353,0.012837,0.011934,0.028952,0.11625,0
0.037899,0.016573,0.015095,0.012353,0.012837,0.011934,0.028952,0.11625,0
0.037899,0.016573,0.015095,0.012353,0.012837,0.011934,0.028952,0.11625,0
0.038406,0.016817,0.016325,0.0115,0.013228,0.012995,0.035602,0.13666,0
0.038406,0.016817,0.016325,0.0115,0.013228,0.012995,0.035602,0.13666,0
0.033904,0.015095,0.015625,0.010769,0.013304,0.013304,0.04067,0.14429,0
0.033904,0.015095,0.015625,0.010769,0.013304,0.013304,0.04067,0.14429,0
0.033904,0.015095,0.015625,0.010769,0.013304,0.013304,0.04067,0.14429,0
0.030559,0.016074,0.015883,0.011231,0.013902,0.014048,0.039192,0.1439,0
0.030559,0.016074,0.015883,0.011231,0.013902,0.014048,0.039192,0.1439,0
0.030559,0.016074,0.015883,0.011231,0.013902,0.014048,0.039192,0.1439,0
0.033694,0.015883,0.013304,0.010578,0.014192,0.014048,0.036975,0.13706,0
0.033694,0.015883,0.013304,0.010578,0.014192,0.014048,0.036975,0.13706,0
0.033299,0.016937,0.017527,0.010286,0.015095,0.012516,0.032868,0.13344,0
0.033299,0.016937,0.017527,0.010286,0.015095,0.012516,0.032868,0.13344,0
0.038247,0.016695,0.020071,0.010863,0.014335,0.012597,0.026799,0.1209,0
0.038247,0.016695,0.020071,0.010863,0.014335,0.012597,0.026799,0.1209,0
0.038113,0.01412,0.018377,0.0097786,0.013228,0.010769,0.030291,0.156,0
0.038113,0.01412,0.018377,0.0097786,0.013228,0.010769,0.030291,0.156,0
0.038113,0.01412,0.018377,0.0097786,0.013228,0.010769,0.030291,0.156,0
0.040394,0.015028,0.021632,0.010186,0.012758,0.012678,0.033874,0.15858,0
0.040394,0.015028,0.021632,0.010186,0.012758,0.012678,0.033874,0.15858,0
0.039089,0.014685,0.022051,0.010482,0.011675,0.012995,0.036699,0.16229,0
0.039089,0.014685,0.022051,0.010482,0.011675,0.012995,0.036699,0.16229,0
0.035113,0.013228,0.016756,0.009674,0.011411,0.013073,0.039089,0.16975,0
0.035113,0.013228,0.016756,0.009674,0.011411,0.013073,0.039089,0.16975,0
0.033603,0.012758,0.01569,0.010674,0.012516,0.013228,0.041902,0.16944,0
0.033603,0.012758,0.01569,0.010674,0.012516,0.013228,0.041902,0.16944,0
0.034203,0.014406,0.017986,0.010674,0.013607,0.014476,0.041044,0.13274,0
0.034203,0.014406,0.017986,0.010674,0.013607,0.014476,0.041044,0.13274,0
0.034203,0.014406,0.017986,0.010674,0.013607,0.014476,0.041044,0.13274,0
0.028563,0.012516,0.014264,0.0099845,0.014048,0.012019,0.041926,0.1064,0
0.028563,0.012516,0.014264,0.0099845,0.014048,0.012019,0.041926,0.1064,0
0.027658,0.012516,0.013681,0.01114,0.013681,0.0115,0.042886,0.13842,0
0.027658,0.012516,0.013681,0.01114,0.013681,0.0115,0.042886,0.13842,0
0.025872,0.01315,0.021012,0.011675,0.013607,0.011675,0.041364,0.13973,0
0.025872,0.01315,0.021012,0.011675,0.013607,0.011675,0.041364,0.13973,0
0.031958,0.015362,0.020373,0.0099845,0.013755,0.010769,0.037711,0.17495,0
0.031958,0.015362,0.020373,0.0099845,0.013755,0.010769,0.037711,0.17495,0
0.030625,0.014685,0.019137,0.011321,0.012435,0.01114,0.030525,0.16883,0
0.030625,0.014685,0.019137,0.011321,0.012435,0.01114,0.030525,0.16883,0
0.030725,0.014823,0.023132,0.01114,0.011762,0.011675,0.029715,0.18803,0
0.030725,0.014823,0.023132,0.01114,0.011762,0.011675,0.029715,0.18803,0
0.030725,0.014823,0.023132,0.01114,0.011762,0.011675,0.029715,0.18803,0
0.028277,0.014754,0.019083,0.010769,0.0115,0.012516,0.030592,0.18114,0
0.028277,0.014754,0.019083,0.010769,0.0115,0.012516,0.030592,0.18114,0
0.028384,0.011848,0.017643,0.0115,0.010482,0.012019,0.029954,0.16524,0
0.028384,0.011848,0.017643,0.0115,0.010482,0.012019,0.029954,0.16524,0
0.025516,0.012597,0.020373,0.0115,0.009674,0.011934,0.027399,0.1525,0
0.025516,0.012597,0.020373,0.0115,0.009674,0.011934,0.027399,0.1525,0
0.023995,0.01114,0.022955,0.01114,0.010384,0.011411,0.026417,0.17263,0
0.023995,0.01114,0.022955,0.01114,0.010384,0.011411,0.026417,0.17263,0
0.026301,0.0098821,0.019243,0.011762,0.012516,0.0115,0.02491,0.16033,0
0.026301,0.0098821,0.019243,0.011762,0.012516,0.0115,0.02491,0.16033,0
0.026685,0.0091332,0.019453,0.011049,0.012758,0.012837,0.027026,0.16138,0
0.026685,0.0091332,0.019453,0.011049,0.012758,0.012837,0.027026,0.16138,0
0.026685,0.0091332,0.019453,0.011049,0.012758,0.012837,0.027026,0.16138,0
0.026685,0.0091332,0.019453,0.011049,0.012758,0.012837,0.027026,0.16138,0
0.028168,0.009674,0.013902,0.011762,0.013829,0.013228,0.031926,0.15086,0
0.028168,0.009674,0.013902,0.011762,0.013829,0.013228,0.031926,0.15086,0
0.031735,0.011675,0.01315,0.011588,0.013228,0.012995,0.035573,0.15095,0
0.031735,0.011675,0.01315,0.011588,0.013228,0.012995,0.035573,0.15095,0
0.031735,0.011675,0.01315,0.011588,0.013228,0.012995,0.035573,0.15095,0
0.03125,0.012758,0.012837,0.011411,0.013456,0.013607,0.035373,0.15348,0
0.040369,0.014546,0.016937,0.011934,0.013456,0.013532,0.038512,0.14009,0
0.044629,0.016074,0.017872,0.010674,0.012995,0.013456,0.044834,0.14601,0
0.044629,0.016074,0.017872,0.010674,0.012995,0.013456,0.044834,0.14601,0
0.044629,0.016074,0.017872,0.010674,0.012995,0.013456,0.044834,0.14601,0
0.044629,0.016074,0.017872,0.010674,0.012995,0.013456,0.044834,0.14601,0
0.044698,0.016325,0.021204,0.01227,0.013755,0.011848,0.044629,0.14815,0
0.044698,0.016325,0.021204,0.01227,0.013755,0.011848,0.044629,0.14815,0
0.044698,0.016325,0.021204,0.01227,0.013755,0.011848,0.044629,0.14815,0
0.045599,0.016817,0.019137,0.011231,0.01412,0.012597,0.045173,0.15587,0
0.045599,0.016817,0.019137,0.011231,0.01412,0.012597,0.045173,0.15587,0
0.037113,0.013755,0.022598,0.010769,0.013607,0.011588,0.036588,0.15479,0
0.037113,0.013755,0.022598,0.010769,0.013607,0.011588,0.036588,0.15479,0
0.037113,0.013755,0.022598,0.010769,0.013607,0.011588,0.036588,0.15479,0
0.037113,0.013755,0.022598,0.010769,0.013607,0.011588,0.036588,0.15479,0
0.037113,0.013755,0.022598,0.010769,0.013607,0.011588,0.036588,0.15479,0
0.038167,0.014685,0.020817,0.01227,0.012019,0.013975,0.031735,0.18688,0
0.038167,0.014685,0.020817,0.01227,0.012019,0.013975,0.031735,0.18688,0
0.037113,0.01496,0.023438,0.014335,0.010863,0.012995,0.023394,0.1824,0
0.037113,0.01496,0.023438,0.014335,0.010863,0.012995,0.023394,0.1824,0
0.037113,0.01496,0.023438,0.014335,0.010863,0.012995,0.023394,0.1824,0
0.036253,0.015755,0.018098,0.01412,0.0115,0.015229,0.026837,0.18718,0
0.036253,0.015755,0.018098,0.01412,0.0115,0.015229,0.026837,0.18718,0
0.031542,0.015819,0.016011,0.013456,0.012019,0.013975,0.027878,0.11171,0
0.031542,0.015819,0.016011,0.013456,0.012019,0.013975,0.027878,0.11171,0
0.033084,0.016997,0.019764,0.011848,0.012837,0.014476,0.030791,0.13457,0
0.033084,0.016997,0.019764,0.011848,0.012837,0.014476,0.030791,0.13457,0
0.035602,0.016634,0.017758,0.010086,0.013228,0.016573,0.035915,0.19512,0
0.034024,0.014264,0.019713,0.010384,0.013456,0.016511,0.035516,0.21108,0
0.034024,0.014264,0.019713,0.010384,0.013456,0.016511,0.035516,0.21108,0
0.039141,0.011411,0.016325,0.010578,0.012758,0.015362,0.044857,0.20978,0
0.039141,0.011411,0.016325,0.010578,0.012758,0.015362,0.044857,0.20978,0
0.039036,0.011231,0.016263,0.010286,0.012516,0.016263,0.045977,0.1991,0
0.039036,0.011231,0.016263,0.010286,0.012516,0.016263,0.045977,0.1991,0
0.039036,0.011231,0.016263,0.010286,0.012516,0.016263,0.045977,0.1991,0
0.039425,0.012995,0.016011,0.010286,0.013073,0.01496,0.045105,0.1727,0
0.039425,0.012995,0.016011,0.010286,0.013073,0.01496,0.045105,0.1727,0
0.037113,0.014192,0.018761,0.011848,0.013532,0.015428,0.045888,0.16174,0
0.037113,0.014192,0.018761,0.011848,0.013532,0.015428,0.045888,0.16174,0
0.035915,0.014406,0.018266,0.011848,0.012353,0.014616,0.045733,0.16789,0
0.035915,0.014406,0.018266,0.011848,0.012353,0.014616,0.045733,0.16789,0
0.035915,0.014406,0.018266,0.011848,0.012353,0.014616,0.045733,0.16789,0
0.031185,0.01338,0.019401,0.011848,0.012103,0.012678,0.043638,0.15212,0
0.031185,0.01338,0.019401,0.011848,0.012103,0.012678,0.043638,0.15212,0
0.031185,0.01338,0.019401,0.011848,0.012103,0.012678,0.043638,0.15212,0
0.031926,0.011762,0.01903,0.011848,0.011762,0.012597,0.042957,0.12708,0
0.031926,0.011762,0.01903,0.011848,0.011762,0.012597,0.042957,0.12708,0
0.031926,0.011762,0.01903,0.011848,0.011762,0.012597,0.042957,0.12708,0
0.031283,0.010674,0.014685,0.0099845,0.011675,0.011848,0.039938,0.12411,0
0.031283,0.010674,0.014685,0.0099845,0.011675,0.011848,0.039938,0.12411,0
0.028277,0.011848,0.014476,0.010286,0.01114,0.012103,0.030592,0.11033,0
0.028277,0.011848,0.014476,0.010286,0.01114,0.012103,0.030592,0.11033,0
0.028917,0.012435,0.013228,0.010674,0.011588,0.01338,0.036893,0.17354,0
0.028917,0.012435,0.013228,0.010674,0.011588,0.01338,0.036893,0.17354,0
0.027474,0.012678,0.01645,0.010769,0.012597,0.013829,0.039115,0.18068,0
0.027474,0.012678,0.01645,0.010769,0.012597,0.013829,0.039115,0.18068,0
0.034322,0.015296,0.018597,0.011588,0.012995,0.013228,0.03714,0.17493,0
0.034322,0.015296,0.018597,0.011588,0.012995,0.013228,0.03714,0.17493,0
0.034322,0.015296,0.018597,0.011588,0.012995,0.013228,0.03714,0.17493,0
0.036644,0.01496,0.016997,0.012516,0.012516,0.013456,0.039708,0.14567,0
0.036644,0.01496,0.016997,0.012516,0.012516,0.013456,0.039708,0.14567,0
0.03714,0.014754,0.022005,0.012758,0.0115,0.01412,0.039503,0.13575,0
0.03714,0.014754,0.022005,0.012758,0.0115,0.01412,0.039503,0.13575,0
0.038007,0.017986,0.020222,0.012995,0.010956,0.014192,0.04542,0.14071,0
0.038007,0.017986,0.020222,0.012995,0.010956,0.014192,0.04542,0.14071,0
0.038007,0.017986,0.020222,0.012995,0.010956,0.014192,0.04542,0.14071,0
0.048244,0.034822,0.070182,0.014264,0.029336,0.022777,0.043592,0.17174,90
0.045821,0.037277,0.070716,0.013456,0.033268,0.020222,0.052833,0.13872,90
0.048685,0.058568,0.076053,0.012916,0.03888,0.023394,0.063003,0.17858,90
0.048685,0.058568,0.076053,0.012916,0.03888,0.023394,0.063003,0.17858,90
0.048685,0.058568,0.076053,0.012916,0.03888,0.023394,0.063003,0.17858,90
0.048685,0.058568,0.076053,0.012916,0.03888,0.023394,0.063003,0.17858,90
0.048685,0.058568,0.076053,0.012916,0.03888,0.023394,0.063003,0.17858,90
0.076759,0.060683,0.056643,0.018211,0.050691,0.032338,0.071517,0.20292,90
0.076759,0.060683,0.056643,0.018211,0.050691,0.032338,0.071517,0.20292,90
0.082099,0.060984,0.052174,0.019295,0.049678,0.03336,0.071503,0.20447,90
0.082099,0.060984,0.052174,0.019295,0.049678,0.03336,0.071503,0.20447,90
0.082099,0.060984,0.052174,0.019295,0.049678,0.03336,0.071503,0.20447,90
0.078372,0.04837,0.046307,0.018815,0.043708,0.029336,0.060884,0.18147,90
0.078372,0.04837,0.046307,0.018815,0.043708,0.029336,0.060884,0.18147,90
0.073855,0.039606,0.044079,0.018976,0.04082,0.026185,0.061565,0.19587,90
0.073855,0.039606,0.044079,0.018976,0.04082,0.026185,0.061565,0.19587,90
0.073855,0.039606,0.044079,0.018976,0.04082,0.026185,0.061565,0.19587,90
0.073758,0.047693,0.043963,0.019348,0.038775,0.023739,0.058097,0.19573,90
0.073758,0.047693,0.043963,0.019348,0.038775,0.023739,0.058097,0.19573,90
0.067853,0.055518,0.070197,0.014892,0.034968,0.019401,0.05504,0.19528,90
0.067853,0.055518,0.070197,0.014892,0.034968,0.019401,0.05504,0.19528,90
0.067853,0.055518,0.070197,0.014892,0.034968,0.019401,0.05504,0.19528,90
0.067853,0.055518,0.070197,0.014892,0.034968,0.019401,0.05504,0.19528,90
0.067853,0.055518,0.070197,0.014892,0.034968,0.019401,0.05504,0.19528,90
0.063373,0.050811,0.073537,0.016634,0.040344,0.022143,0.05592,0.17591,90
0.063373,0.050811,0.073537,0.016634,0.040344,0.022143,0.05592,0.17591,90
0.063373,0.050811,0.073537,0.016634,0.040344,0.022143,0.05592,0.17591,90
0.064091,0.057357,0.080989,0.016877,0.031412,0.022866,0.060884,0.19865,90
0.064091,0.057357,0.080989,0.016877,0.031412,0.022866,0.060884,0.19865,90
0.066014,0.050349,0.083792,0.015947,0.033724,0.020866,0.057054,0.19172,90
0.066014,0.050349,0.083792,0.015947,0.033724,0.020866,0.057054,0.19172,90
0.065488,0.045688,0.065814,0.016756,0.038722,0.023219,0.060733,0.17913,90
0.065488,0.045688,0.065814,0.016756,0.038722,0.023219,0.060733,0.17913,90
0.065488,0.045688,0.065814,0.016756,0.038722,0.023219,0.060733,0.17913,90
0.064613,0.047156,0.061582,0.016937,0.035801,0.023394,0.061018,0.20543,90
0.064613,0.047156,0.061582,0.016937,0.035801,0.023394,0.061018,0.20543,90
0.064613,0.047156,0.061582,0.016937,0.035801,0.023394,0.061018,0.20543,90
0.0614,0.035659,0.056822,0.014335,0.034734,0.020866,0.059378,0.20849,90
0.0614,0.035659,0.056822,0.014335,0.034734,0.020866,0.059378,0.20849,90
0.054202,0.033573,0.055683,0.014192,0.037684,0.020915,0.060851,0.18811,90
0.054202,0.033573,0.055683,0.014192,0.037684,0.020915,0.060851,0.18811,90
0.056589,0.025195,0.057374,0.012995,0.038722,0.018266,0.059155,0.19119,90
0.056589,0.025195,0.057374,0.012995,0.038722,0.018266,0.059155,0.19119,90
0.056589,0.025195,0.057374,0.012995,0.038722,0.018266,0.059155,0.19119,90
0.056804,0.030157,0.057816,0.011762,0.034322,0.016573,0.050791,0.17087,90
0.056804,0.030157,0.057816,0.011762,0.034322,0.016573,0.050791,0.17087,90
0.060465,0.029092,0.058009,0.012435,0.039964,0.02002,0.053995,0.17898,90
0.060465,0.029092,0.058009,0.012435,0.039964,0.02002,0.053995,0.17898,90
0.068836,0.032868,0.048223,0.013456,0.037926,0.018869,0.055683,0.16575,90
0.068836,0.032868,0.048223,0.013456,0.037926,0.018869,0.055683,0.16575,90
0.072253,0.044492,0.044925,0.012837,0.040167,0.018815,0.051547,0.16495,90
0.072253,0.044492,0.044925,0.012837,0.040167,0.018815,0.051547,0.16495,90
0.072253,0.044492,0.044925,0.012837,0.040167,0.018815,0.051547,0.16495,90
0.073662,0.047905,0.048997,0.013681,0.03927,0.022051,0.050146,0.1518,90
0.073662,0.047905,0.048997,0.013681,0.03927,0.022051,0.050146,0.1518,90
0.073662,0.047905,0.048997,0.013681,0.03927,0.022051,0.050146,0.1518,90
0.087834,0.048726,0.049328,0.01412,0.036755,0.025033,0.053882,0.11091,90
0.087834,0.048726,0.049328,0.01412,0.036755,0.025033,0.053882,0.11091,90
0.10428,0.051842,0.043894,0.012916,0.046263,0.027138,0.068227,0.19961,90
0.10428,0.051842,0.043894,0.012916,0.046263,0.027138,0.068227,0.19961,90
0.10428,0.051842,0.043894,0.012916,0.046263,0.027138,0.068227,0.19961,90
0.1101,0.049225,0.069629,0.013829,0.04533,0.029749,0.071161,0.20365,90
0.1101,0.049225,0.069629,0.013829,0.04533,0.029749,0.071161,0.20365,90
0.1093,0.061961,0.073135,0.01315,0.048265,0.02992,0.076812,0.20447,90
0.1093,0.061961,0.073135,0.01315,0.048265,0.02992,0.076812,0.20447,90
0.1093,0.061961,0.073135,0.01315,0.048265,0.02992,0.076812,0.20447,90
0.11589,0.058254,0.067175,0.013681,0.054014,0.029749,0.081328,0.20604,90
0.11589,0.058254,0.067175,0.013681,0.054014,0.029749,0.081328,0.20604,90
0.11589,0.058254,0.067175,0.013681,0.054014,0.029749,0.081328,0.20604,90
0.11552,0.060414,0.0762,0.016074,0.056733,0.031021,0.08159,0.21141,90
0.11552,0.060414,0.0762,0.016074,0.056733,0.031021,0.08159,0.21141,90
0.096562,0.06145,0.07776,0.01645,0.049902,0.026875,0.063212,0.15459,90
0.096562,0.06145,0.07776,0.01645,0.049902,0.026875,0.063212,0.15459,90
0.096562,0.06145,0.07776,0.01645,0.049902,0.026875,0.063212,0.15459,90
0.088882,0.058793,0.065348,0.017176,0.053217,0.025754,0.060583,0.17097,90
0.088882,0.058793,0.065348,0.017176,0.053217,0.025754,0.060583,0.17097,90
0.086891,0.042072,0.064817,0.01645,0.047372,0.025911,0.0498,0.18795,90
0.086891,0.042072,0.064817,0.01645,0.047372,0.025911,0.0498,0.18795,90
0.074171,0.035773,0.07469,0.015296,0.047671,0.023132,0.047969,0.17874,90
0.074171,0.035773,0.07469,0.015296,0.047671,0.023132,0.047969,0.17874,90
0.074171,0.035773,0.07469,0.015296,0.047671,0.023132,0.047969,0.17874,90
0.074171,0.035773,0.07469,0.015296,0.047671,0.023132,0.047969,0.17874,90
0.074171,0.035773,0.07469,0.015296,0.047671,0.023132,0.047969,0.17874,90
0.088112,0.033784,0.076719,0.015625,0.059086,0.023219,0.054145,0.1979,90
0.088112,0.033784,0.076719,0.015625,0.059086,0.023219,0.054145,0.1979,90
0.088112,0.033784,0.076719,0.015625,0.059086,0.023219,0.054145,0.1979,90
0.095385,0.041756,0.069028,0.016011,0.058516,0.024164,0.057921,0.20866,90
0.095385,0.041756,0.069028,0.016011,0.058516,0.024164,0.057921,0.20866,90
0.089259,0.042409,0.077694,0.018652,0.059771,0.023394,0.062825,0.20972,90
0.089259,0.042409,0.077694,0.018652,0.059771,0.023394,0.062825,0.20972,90
0.089259,0.042409,0.077694,0.018652,0.059771,0.023394,0.062825,0.20972,90
0.081227,0.042457,0.074198,0.01903,0.052018,0.023132,0.062533,0.21009,90
0.081227,0.042457,0.074198,0.01903,0.052018,0.023132,0.062533,0.21009,90
0.077668,0.047778,0.060026,0.018543,0.052077,0.021252,0.062223,0.20641,90
0.077668,0.047778,0.060026,0.018543,0.052077,0.021252,0.062223,0.20641,90
0.077668,0.047778,0.060026,0.018543,0.052077,0.021252,0.062223,0.20641,90
0.069292,0.046021,0.059172,0.018869,0.049328,0.020222,0.055445,0.16787,90
0.069292,0.046021,0.059172,0.018869,0.049328,0.020222,0.055445,0.16787,90
0.063035,0.03814,0.061895,0.0162,0.048391,0.023394,0.062938,0.19103,90
0.063035,0.03814,0.061895,0.0162,0.048391,0.023394,0.062938,0.19103,90
0.059413,0.033844,0.041217,0.0162,0.043099,0.021632,0.060817,0.18966,90
0.059413,0.033844,0.041217,0.0162,0.043099,0.021632,0.060817,0.18966,90
0.064028,0.042933,0.065317,0.016325,0.046153,0.024122,0.064974,0.22572,90
0.064028,0.042933,0.065317,0.016325,0.046153,0.024122,0.064974,0.22572,90
0.064028,0.042933,0.065317,0.016325,0.046153,0.024122,0.064974,0.22572,90
0.060549,0.035055,0.070066,0.014192,0.042767,0.025073,0.070124,0.23809,90
0.060549,0.035055,0.070066,0.014192,0.042767,0.025073,0.070124,0.23809,90
0.061944,0.037522,0.075933,0.014754,0.043358,0.021585,0.07439,0.2247,90
0.061944,0.037522,0.075933,0.014754,0.043358,0.021585,0.07439,0.2247,90
0.060867,0.040994,0.081677,0.016011,0.04134,0.024122,0.068791,0.23051,90
0.060867,0.040994,0.081677,0.016011,0.04134,0.024122,0.068791,0.23051,90
0.063805,0.032868,0.066933,0.016695,0.041143,0.023567,0.067342,0.18492,90
0.063805,0.032868,0.066933,0.016695,0.041143,0.023567,0.067342,0.18492,90
0.063805,0.032868,0.066933,0.016695,0.041143,0.023567,0.067342,0.18492,90
0.063805,0.032868,0.066933,0.016695,0.041143,0.023567,0.067342,0.18492,90
0.063805,0.032868,0.066933,0.016695,0.041143,0.023567,0.067342,0.18492,90
0.055058,0.039322,0.064974,0.017527,0.033633,0.018488,0.060347,0.19854,90
0.055058,0.039322,0.064974,0.017527,0.033633,0.018488,0.060347,0.19854,90
0.057072,0.039528,0.080384,0.018488,0.03714,0.017929,0.057339,0.17288,90
0.057072,0.039528,0.080384,0.018488,0.03714,0.017929,0.057339,0.17288,90
0.050268,0.041414,0.079416,0.018155,0.037926,0.019557,0.052833,0.18138,90
0.050268,0.041414,0.079416,0.018155,0.037926,0.019557,0.052833,0.18138,90
0.050268,0.041414,0.079416,0.018155,0.037926,0.019557,0.052833,0.18138,90
0.053217,0.041044,0.080054,0.016756,0.034587,0.019661,0.046439,0.19083,90
0.053217,0.041044,0.080054,0.016756,0.034587,0.019661,0.046439,0.19083,90
0.057197,0.043028,0.086198,0.014892,0.03112,0.021204,0.052891,0.20541,90
0.057197,0.043028,0.086198,0.014892,0.03112,0.021204,0.052891,0.20541,90
0.057019,0.042505,0.086633,0.010578,0.028917,0.018377,0.04837,0.20022,90
0.057019,0.042505,0.086633,0.010578,0.028917,0.018377,0.04837,0.20022,90
0.057019,0.042505,0.086633,0.010578,0.028917,0.018377,0.04837,0.20022,90
0.059839,0.040969,0.066337,0.011321,0.038722,0.015428,0.051862,0.19821,90
0.059839,0.040969,0.066337,0.011321,0.038722,0.015428,0.051862,0.19821,90
0.057481,0.051051,0.069629,0.012758,0.040268,0.016573,0.054483,0.20499,90
0.057481,0.051051,0.069629,0.012758,0.040268,0.016573,0.054483,0.20499,90
0.057481,0.051051,0.069629,0.012758,0.040268,0.016573,0.054483,0.20499,90
0.057481,0.051051,0.069629,0.012758,0.040268,0.016573,0.054483,0.20499,90
0.057481,0.051051,0.069629,0.012758,0.040268,0.016573,0.054483,0.20499,90
0.055077,0.041019,0.063853,0.01496,0.038932,0.019713,0.053674,0.22464,90
0.055077,0.041019,0.063853,0.01496,0.038932,0.019713,0.053674,0.22464,90
0.058114,0.042216,0.056102,0.014546,0.036393,0.021012,0.05266,0.21072,90
0.058114,0.042216,0.056102,0.014546,0.036393,0.021012,0.05266,0.21072,90
0.062922,0.033663,0.063597,0.01645,0.041019,0.021156,0.046263,0.22575,90
0.062922,0.033663,0.063597,0.01645,0.041019,0.021156,0.046263,0.22575,90
0.065737,0.034734,0.065737,0.017057,0.041732,0.020422,0.043217,0.20112,90
0.065737,0.034734,0.065737,0.017057,0.041732,0.020422,0.043217,0.20112,90
0.069131,0.050429,0.083268,0.01645,0.043894,0.021726,0.046657,0.18427,90
0.069131,0.050429,0.083268,0.01645,0.043894,0.021726,0.046657,0.18427,90
0.069131,0.050429,0.083268,0.01645,0.043894,0.021726,0.046657,0.18427,90
0.068227,0.052096,0.088607,0.017701,0.041536,0.023219,0.048538,0.21091,90
0.068227,0.052096,0.088607,0.017701,0.041536,0.023219,0.048538,0.21091,90
0.068227,0.052096,0.088607,0.017701,0.041536,0.023219,0.048538,0.21091,90
0.067054,0.047027,0.08557,0.016997,0.043075,0.025516,0.060683,0.23018,90
0.067054,0.047027,0.08557,0.016997,0.043075,0.025516,0.060683,0.23018,90
0.064091,0.045666,0.0857,0.016325,0.042265,0.024499,0.061151,0.24433,90
0.061034,0.033512,0.063645,0.015819,0.042719,0.024992,0.058044,0.29097,90
0.061034,0.033512,0.063645,0.015819,0.042719,0.024992,0.058044,0.29097,90
0.061034,0.033512,0.063645,0.015819,0.042719,0.024992,0.058044,0.29097,90
0.066199,0.040969,0.056102,0.013829,0.03888,0.022999,0.065551,0.30302,90
0.066199,0.040969,0.056102,0.013829,0.03888,0.022999,0.065551,0.30302,90
0.068584,0.042838,0.045733,0.016877,0.043592,0.021819,0.056715,0.28577,90
0.068584,0.042838,0.045733,0.016877,0.043592,0.021819,0.056715,0.28577,90
0.068584,0.042838,0.045733,0.016877,0.043592,0.021819,0.056715,0.28577,90
0.061383,0.043287,0.064754,0.017411,0.049575,0.023696,0.055902,0.29422,90
0.061383,0.043287,0.064754,0.017411,0.049575,0.023696,0.055902,0.29422,90
0.071261,0.044378,0.063228,0.016937,0.051051,0.022005,0.060583,0.27996,90
0.071261,0.044378,0.063228,0.016937,0.051051,0.022005,0.060583,0.27996,90
0.065364,0.040369,0.07166,0.022005,0.05335,0.024206,0.061267,0.26839,90
0.065364,0.040369,0.07166,0.022005,0.05335,0.024206,0.061267,0.26839,90
0.062646,0.037413,0.065239,0.020571,0.05233,0.023481,0.058289,0.19886,90
0.062646,0.037413,0.065239,0.020571,0.05233,0.023481,0.058289,0.19886,90
0.070284,0.036141,0.053179,0.020472,0.055829,0.027658,0.059975,0.2089,90
0.070284,0.036141,0.053179,0.020472,0.055829,0.027658,0.059975,0.2089,90
0.051031,0.035373,0.067628,0.012678,0.017643,0.012995,0.046505,0.19041,45
0.047414,0.027437,0.053236,0.013228,0.017929,0.015162,0.045308,0.16753,45
0.047414,0.027437,0.053236,0.013228,0.017929,0.015162,0.045308,0.16753,45
0.047414,0.027437,0.053236,0.013228,0.017929,0.015162,0.045308,0.16753,45
0.047414,0.027437,0.053236,0.013228,0.017929,0.015162,0.045308,0.16753,45
0.047414,0.027437,0.053236,0.013228,0.017929,0.015162,0.045308,0.16753,45
0.047414,0.027437,0.053236,0.013228,0.017929,0.015162,0.045308,0.16753,45
0.047414,0.027437,0.053236,0.013228,0.017929,0.015162,0.045308,0.16753,45
0.047414,0.027437,0.053236,0.013228,0.017929,0.015162,0.045308,0.16753,45
0.047414,0.027325,0.053408,0.013228,0.017758,0.015428,0.044561,0.16572,45
0.047414,0.027325,0.053408,0.013228,0.017758,0.015428,0.044561,0.16572,45
0.032463,0.029162,0.052155,0.01114,0.014192,0.016573,0.042552,0.25214,45
0.032463,0.029162,0.052155,0.01114,0.014192,0.016573,0.042552,0.25214,45
0.032463,0.029162,0.052155,0.01114,0.014192,0.016573,0.042552,0.25214,45
0.032463,0.029162,0.052155,0.01114,0.014192,0.016573,0.042552,0.25214,45
0.032463,0.029162,0.052155,0.01114,0.014192,0.016573,0.042552,0.25214,45
0.04161,0.027695,0.046766,0.012597,0.015494,0.017643,0.038432,0.22774,45
0.04161,0.027695,0.046766,0.012597,0.015494,0.017643,0.038432,0.22774,45
0.04161,0.027695,0.046766,0.012597,0.015494,0.017643,0.038432,0.22774,45
0.04161,0.027695,0.046766,0.012597,0.015494,0.017643,0.038432,0.22774,45
0.04161,0.027695,0.046766,0.012597,0.015494,0.017643,0.038432,0.22774,45
0.041487,0.027695,0.046614,0.012597,0.015494,0.017643,0.038617,0.22945,45
0.041487,0.027695,0.046614,0.012597,0.015494,0.017643,0.038617,0.22945,45
0.041487,0.027695,0.046614,0.012597,0.015494,0.017643,0.038617,0.22945,45
0.042144,0.034909,0.048559,0.012678,0.018597,0.016325,0.038247,0.16875,45
0.042144,0.034909,0.048559,0.012678,0.018597,0.016325,0.038247,0.16875,45
0.042144,0.034909,0.048559,0.012678,0.018597,0.016325,0.038247,0.16875,45
0.037359,0.03488,0.048976,0.012678,0.018211,0.016137,0.039296,0.16932,45
0.037359,0.03488,0.048976,0.012678,0.018211,0.016137,0.039296,0.16932,45
0.036477,0.034617,0.051111,0.012435,0.018211,0.016573,0.042862,0.16313,45
0.036477,0.034617,0.051111,0.012435,0.018211,0.016573,0.042862,0.16313,45
0.036477,0.034617,0.051111,0.012435,0.018211,0.016573,0.042862,0.16313,45
0.034909,0.042047,0.052775,0.012758,0.018488,0.015819,0.043146,0.1636,45
0.034909,0.042047,0.052775,0.012758,0.018488,0.015819,0.043146,0.1636,45
0.034909,0.042047,0.052775,0.012758,0.018488,0.015819,0.043146,0.1636,45
0.03444,0.042241,0.05592,0.012678,0.018652,0.015755,0.042933,0.16332,45
0.03444,0.042241,0.05592,0.012678,0.018652,0.015755,0.042933,0.16332,45
0.032463,0.03488,0.061433,0.013902,0.013829,0.017986,0.04681,0.1805,45
0.032463,0.03488,0.061433,0.013902,0.013829,0.017986,0.04681,0.1805,45
0.032463,0.03488,0.061433,0.013902,0.013829,0.017986,0.04681,0.1805,45
0.032463,0.03488,0.061433,0.013902,0.013829,0.017986,0.04681,0.1805,45
0.032463,0.03714,0.064534,0.013975,0.013829,0.017294,0.044125,0.17998,45
0.032463,0.03714,0.064534,0.013975,0.013829,0.017294,0.044125,0.17998,45
0.032463,0.03714,0.064534,0.013975,0.013829,0.017294,0.044125,0.17998,45
0.039887,0.041143,0.042981,0.013073,0.014476,0.013073,0.035459,0.1925,45
0.039887,0.041143,0.042981,0.013073,0.014476,0.013073,0.035459,0.1925,45
0.040595,0.041438,0.045241,0.013681,0.011848,0.014192,0.038033,0.22832,45
0.040595,0.041438,0.045241,0.013681,0.011848,0.014192,0.038033,0.22832,45
0.040595,0.041438,0.045241,0.013681,0.011848,0.014192,0.038033,0.22832,45
0.040595,0.041438,0.045241,0.013681,0.011848,0.014192,0.038033,0.22832,45
0.040595,0.041438,0.045241,0.013681,0.011848,0.014192,0.038033,0.22832,45
0.039218,0.040065,0.050248,0.01412,0.013607,0.012758,0.052018,0.22061,45
0.039218,0.040065,0.050248,0.01412,0.013607,0.012758,0.052018,0.22061,45
0.039218,0.040065,0.050248,0.01412,0.013607,0.012758,0.052018,0.22061,45
0.039218,0.040065,0.050248,0.01412,0.013607,0.012758,0.052018,0.22061,45
0.039218,0.040065,0.050248,0.01412,0.013607,0.012758,0.052018,0.22061,45
0.039218,0.040444,0.049759,0.014406,0.013607,0.013073,0.052077,0.22311,45
0.039218,0.040444,0.049759,0.014406,0.013607,0.013073,0.052077,0.22311,45
0.039218,0.040444,0.049759,0.014406,0.013607,0.013073,0.052077,0.22311,45
0.03744,0.045015,0.056929,0.012019,0.014754,0.014685,0.050004,0.20343,45
0.03744,0.045015,0.056929,0.012019,0.014754,0.014685,0.050004,0.20343,45
0.037926,0.045308,0.057357,0.013975,0.013681,0.016263,0.050268,0.20588,45
0.037926,0.045308,0.057357,0.013975,0.013681,0.016263,0.050268,0.20588,45
0.038353,0.045308,0.056912,0.014192,0.012435,0.016817,0.049963,0.19929,45
0.038353,0.045308,0.056912,0.014192,0.012435,0.016817,0.049963,0.19929,45
0.038353,0.045308,0.056912,0.014192,0.012435,0.016817,0.049963,0.19929,45
0.027138,0.023307,0.050931,0.013228,0.010956,0.015095,0.043731,0.14028,45
0.027138,0.023307,0.050931,0.013228,0.010956,0.015095,0.043731,0.14028,45
0.027138,0.023307,0.050931,0.013228,0.010956,0.015095,0.043731,0.14028,45
0.027138,0.023307,0.050931,0.013228,0.010956,0.015095,0.043731,0.14028,45
0.027138,0.023307,0.050931,0.013228,0.010956,0.015095,0.043731,0.14028,45
0.030857,0.026146,0.049431,0.013073,0.014406,0.013902,0.047884,0.21776,45
0.030857,0.026146,0.049431,0.013073,0.014406,0.013902,0.047884,0.21776,45
0.030857,0.026146,0.049431,0.013073,0.014406,0.013902,0.047884,0.21776,45
0.030857,0.026146,0.049431,0.013073,0.014406,0.013902,0.047884,0.21776,45
0.030392,0.027658,0.049184,0.01315,0.01412,0.014476,0.048412,0.21754,45
0.030392,0.027658,0.049184,0.01315,0.01412,0.014476,0.048412,0.21754,45
0.030392,0.027658,0.049184,0.01315,0.01412,0.014476,0.048412,0.21754,45
0.040268,0.03901,0.054408,0.014264,0.017235,0.016756,0.058324,0.21843,45
0.040268,0.03901,0.054408,0.014264,0.017235,0.016756,0.058324,0.21843,45
0.040268,0.03901,0.054408,0.014264,0.017235,0.016756,0.058324,0.21843,45
0.040268,0.03901,0.054408,0.014264,0.017235,0.016756,0.058324,0.21843,45
0.040268,0.03901,0.054408,0.014264,0.017235,0.016756,0.058324,0.21843,45
0.037222,0.040919,0.064565,0.012678,0.013456,0.017701,0.051309,0.15717,45
0.037222,0.040919,0.064565,0.012678,0.013456,0.017701,0.051309,0.15717,45
0.040014,0.04765,0.06028,0.013681,0.015883,0.018597,0.050731,0.1884,45
0.040014,0.04765,0.06028,0.013681,0.015883,0.018597,0.050731,0.1884,45
0.040014,0.04765,0.06028,0.013681,0.015883,0.018597,0.050731,0.1884,45
0.040014,0.04765,0.06028,0.013681,0.015883,0.018597,0.050731,0.1884,45
0.040014,0.04765,0.06028,0.013681,0.015883,0.018597,0.050731,0.1884,45
0.040091,0.042791,0.056876,0.013681,0.016634,0.018597,0.049821,0.18801,45
0.034763,0.04291,0.053863,0.013228,0.016325,0.016325,0.033964,0.18587,45
0.034763,0.04291,0.053863,0.013228,0.016325,0.016325,0.033964,0.18587,45
0.034763,0.04291,0.053863,0.013228,0.016325,0.016325,0.033964,0.18587,45
0.031445,0.027768,0.042648,0.011848,0.015819,0.013681,0.032589,0.17653,45
0.031445,0.027768,0.042648,0.011848,0.015819,0.013681,0.032589,0.17653,45
0.031445,0.027768,0.042648,0.011848,0.015819,0.013681,0.032589,0.17653,45
0.031445,0.027768,0.042648,0.011848,0.015819,0.013681,0.032589,0.17653,45
0.031445,0.027768,0.042648,0.011848,0.015819,0.013681,0.032589,0.17653,45
0.03138,0.028705,0.035459,0.01114,0.014754,0.012103,0.031087,0.1496,45
0.03138,0.028705,0.035459,0.01114,0.014754,0.012103,0.031087,0.1496,45
0.03138,0.028705,0.035459,0.01114,0.014754,0.012103,0.031087,0.1496,45
0.03138,0.028705,0.035459,0.01114,0.014754,0.012103,0.031087,0.1496,45
0.03138,0.028705,0.035459,0.01114,0.014754,0.012103,0.031087,0.1496,45
0.032243,0.028277,0.035573,0.01114,0.014823,0.012103,0.031606,0.1425,45
0.032243,0.028277,0.035573,0.01114,0.014823,0.012103,0.031606,0.1425,45
0.040293,0.030224,0.039887,0.01227,0.014754,0.014685,0.050329,0.18082,45
0.040293,0.030224,0.039887,0.01227,0.014754,0.014685,0.050329,0.18082,45
0.040293,0.030224,0.039887,0.01227,0.014754,0.014685,0.050329,0.18082,45
0.040293,0.030224,0.039887,0.01227,0.014754,0.014685,0.050329,0.18082,45
0.040293,0.030224,0.039887,0.01227,0.014754,0.014685,0.050329,0.18082,45
0.040293,0.030224,0.039887,0.01227,0.014754,0.014685,0.050329,0.18082,45
0.039964,0.025832,0.033146,0.012758,0.013607,0.01412,0.050811,0.16775,45
0.039964,0.025832,0.033146,0.012758,0.013607,0.01412,0.050811,0.16775,45
0.039964,0.025832,0.033146,0.012758,0.013607,0.01412,0.050811,0.16775,45
0.039964,0.025832,0.033146,0.012758,0.013607,0.01412,0.050811,0.16775,45
0.039964,0.025832,0.033146,0.012758,0.013607,0.01412,0.050811,0.16775,45
0.04394,0.026913,0.032401,0.01315,0.015028,0.018042,0.053806,0.17843,45
0.04394,0.026913,0.032401,0.01315,0.015028,0.018042,0.053806,0.17843,45
0.041291,0.024829,0.029886,0.012019,0.014823,0.019453,0.057534,0.1477,45
0.041291,0.024829,0.029886,0.012019,0.014823,0.019453,0.057534,0.1477,45
0.041291,0.024829,0.029886,0.012019,0.014823,0.019453,0.057534,0.1477,45
0.041291,0.024829,0.029886,0.012019,0.014823,0.019453,0.057534,0.1477,45
0.041291,0.024829,0.029886,0.012019,0.014823,0.019453,0.057534,0.1477,45
0.041291,0.024829,0.029886,0.012019,0.014823,0.019453,0.057534,0.1477,45
0.036948,0.037684,0.055077,0.011049,0.012837,0.016634,0.04978,0.16349,45
0.036948,0.037684,0.055077,0.011049,0.012837,0.016634,0.04978,0.16349,45
0.036948,0.037684,0.055077,0.011049,0.012837,0.016634,0.04978,0.16349,45
0.036337,0.037495,0.05264,0.010482,0.011049,0.015162,0.039348,0.15478,45
0.036337,0.037495,0.05264,0.010482,0.011049,0.015162,0.039348,0.15478,45
0.03563,0.042385,0.059737,0.010863,0.01114,0.015819,0.04657,0.15273,45
0.03563,0.042385,0.059737,0.010863,0.01114,0.015819,0.04657,0.15273,45
0.03563,0.042385,0.059737,0.010863,0.01114,0.015819,0.04657,0.15273,45
0.037359,0.03138,0.038167,0.011848,0.013073,0.017815,0.051091,0.12344,45
0.037359,0.03138,0.038167,0.011848,0.013073,0.017815,0.051091,0.12344,45
0.037003,0.03336,0.039425,0.012187,0.012837,0.018098,0.051744,0.12351,45
0.037003,0.03336,0.039425,0.012187,0.012837,0.018098,0.051744,0.12351,45
0.037003,0.03336,0.039425,0.012187,0.012837,0.018098,0.051744,0.12351,45
0.035545,0.040969,0.059104,0.012837,0.012837,0.016756,0.054688,0.14173,45
0.035545,0.040969,0.059104,0.012837,0.012837,0.016756,0.054688,0.14173,45
0.035545,0.040969,0.059104,0.012837,0.012837,0.016756,0.054688,0.14173,45
0.035545,0.040969,0.059104,0.012837,0.012837,0.016756,0.054688,0.14173,45
0.035545,0.040969,0.059104,0.012837,0.012837,0.016756,0.054688,0.14173,45
0.035084,0.043848,0.060178,0.012516,0.012837,0.016817,0.054538,0.14251,45
0.035084,0.043848,0.060178,0.012516,0.012837,0.016817,0.054538,0.14251,45
0.035084,0.043848,0.060178,0.012516,0.012837,0.016817,0.054538,0.14251,45
0.035602,0.034587,0.052891,0.01114,0.01556,0.012353,0.031185,0.1719,45
0.035602,0.034587,0.052891,0.01114,0.01556,0.012353,0.031185,0.1719,45
0.035602,0.034587,0.052891,0.01114,0.01556,0.012353,0.031185,0.1719,45
0.035602,0.034587,0.052891,0.01114,0.01556,0.012353,0.031185,0.1719,45
0.035602,0.034587,0.052891,0.01114,0.01556,0.012353,0.031185,0.1719,45
0.035602,0.034587,0.052891,0.01114,0.01556,0.012353,0.031185,0.1719,45
0.035602,0.034587,0.052891,0.01114,0.01556,0.012353,0.031185,0.1719,45
0.036948,0.024623,0.034617,0.013304,0.017929,0.014823,0.028096,0.17644,45
0.036948,0.024623,0.034617,0.013304,0.017929,0.014823,0.028096,0.17644,45
0.036948,0.024623,0.034617,0.013304,0.017929,0.014823,0.028096,0.17644,45
0.037522,0.024992,0.038193,0.015296,0.017701,0.01569,0.037058,0.21937,45
0.037522,0.024992,0.038193,0.015296,0.017701,0.01569,0.037058,0.21937,45
0.038033,0.026378,0.036755,0.013681,0.019243,0.015819,0.043217,0.20451,45
0.038033,0.026378,0.036755,0.013681,0.019243,0.015819,0.043217,0.20451,45
0.038033,0.026378,0.036755,0.013681,0.019243,0.015819,0.043217,0.20451,45
0.038033,0.026378,0.036755,0.013681,0.019243,0.015819,0.043217,0.20451,45
0.038033,0.026378,0.036755,0.013681,0.019243,0.015819,0.043217,0.20451,45
0.038033,0.026378,0.036755,0.013681,0.019243,0.015819,0.043217,0.20451,45
0.038033,0.026378,0.036755,0.013681,0.019243,0.015819,0.043217,0.20451,45
0.038033,0.026378,0.036755,0.013681,0.019243,0.015819,0.043217,0.20451,45
0.043264,0.04178,0.045932,0.010482,0.013228,0.014616,0.06135,0.18767,45
0.043264,0.04178,0.045932,0.010482,0.013228,0.014616,0.06135,0.18767,45
0.043264,0.04178,0.045932,0.010482,0.013228,0.014616,0.06135,0.18767,45
0.043264,0.04178,0.045932,0.010482,0.013228,0.014616,0.06135,0.18767,45
0.04317,0.037872,0.043871,0.010384,0.013829,0.014264,0.061944,0.18858,45
0.04317,0.037872,0.043871,0.010384,0.013829,0.014264,0.061944,0.18858,45
0.04317,0.037872,0.043871,0.010384,0.013829,0.014264,0.061944,0.18858,45
0.049718,0.032243,0.054426,0.010769,0.015028,0.018155,0.073191,0.15432,45
0.049718,0.032243,0.054426,0.010769,0.015028,0.018155,0.073191,0.15432,45
0.049718,0.032243,0.054426,0.010769,0.015028,0.018155,0.073191,0.15432,45
0.049718,0.032243,0.054426,0.010769,0.015028,0.018155,0.073191,0.15432,45
0.043778,0.038247,0.053179,0.01114,0.012837,0.017643,0.058481,0.17196,45
0.022143,0.014616,0.029474,0.0091332,0.01114,0.018488,0.067251,0.13575,-45
0.024457,0.015362,0.028634,0.0090211,0.011049,0.016011,0.065968,0.19105,-45
0.026107,0.015625,0.029988,0.010086,0.010674,0.014892,0.059378,0.19667,-45
0.026107,0.015625,0.029988,0.010086,0.010674,0.014892,0.059378,0.19667,-45
0.02595,0.013829,0.029266,0.0097786,0.0097786,0.014476,0.066383,0.20396,-45
0.02595,0.013829,0.029266,0.0097786,0.0097786,0.014476,0.066383,0.20396,-45
0.02595,0.013228,0.029405,0.0097786,0.010956,0.014476,0.063805,0.20077,-45
0.02595,0.013228,0.029405,0.0097786,0.010956,0.014476,0.063805,0.20077,-45
0.02595,0.013228,0.029405,0.0097786,0.010956,0.014476,0.063805,0.20077,-45
0.026875,0.013456,0.029509,0.0097786,0.010956,0.014823,0.066796,0.2011,-45
0.025154,0.012435,0.024499,0.011934,0.011049,0.014264,0.061184,0.1578,-45
0.025154,0.012435,0.024499,0.011934,0.011049,0.014264,0.061184,0.1578,-45
0.025154,0.012435,0.024499,0.011934,0.011049,0.014264,0.061184,0.1578,-45
0.027951,0.014264,0.017057,0.012678,0.013456,0.017057,0.07129,0.1455,-45
0.027951,0.014264,0.017057,0.012678,0.013456,0.017057,0.07129,0.1455,-45
0.027101,0.013902,0.022005,0.012516,0.012435,0.016997,0.0705,0.1595,-45
0.027101,0.013902,0.022005,0.012516,0.012435,0.016997,0.0705,0.1595,-45
0.027213,0.013829,0.022777,0.011848,0.012435,0.016937,0.064833,0.17902,-45
0.027213,0.013829,0.022777,0.011848,0.012435,0.016937,0.064833,0.17902,-45
0.027213,0.013829,0.022777,0.011848,0.012435,0.016937,0.064833,0.17902,-45
0.022553,0.014754,0.02228,0.010863,0.013902,0.015947,0.063453,0.17792,-45
0.022553,0.014754,0.02228,0.010863,0.013902,0.015947,0.063453,0.17792,-45
0.022553,0.014754,0.02228,0.010863,0.013902,0.015947,0.063453,0.17792,-45
0.022553,0.014754,0.02228,0.010863,0.013902,0.015947,0.063453,0.17792,-45
0.022553,0.014754,0.02228,0.010863,0.013902,0.015947,0.063453,0.17792,-45
0.022553,0.014754,0.02228,0.010863,0.013902,0.015947,0.063453,0.17792,-45
0.022553,0.014754,0.02228,0.010863,0.013902,0.015947,0.063453,0.17792,-45
0.022553,0.014754,0.02228,0.010863,0.013902,0.015947,0.063453,0.17792,-45
0.023438,0.01315,0.018761,0.01227,0.01412,0.017411,0.064329,0.13933,-45
0.023438,0.01315,0.018761,0.01227,0.01412,0.017411,0.064329,0.13933,-45
0.022326,0.013607,0.025754,0.012103,0.012916,0.017235,0.065255,0.21045,-45
0.022326,0.013607,0.025754,0.012103,0.012916,0.017235,0.065255,0.21045,-45
0.021204,0.013975,0.023307,0.011675,0.010086,0.016137,0.051783,0.20817,-45
0.021204,0.013975,0.023307,0.011675,0.010086,0.016137,0.051783,0.20817,-45
0.021204,0.013975,0.023307,0.011675,0.010086,0.016137,0.051783,0.20817,-45
0.019505,0.01315,0.023481,0.0115,0.010674,0.016388,0.048768,0.20003,-45
0.019505,0.01315,0.023481,0.0115,0.010674,0.016388,0.048768,0.20003,-45
0.019243,0.011762,0.020817,0.0093533,0.011231,0.016756,0.043405,0.17382,-45
0.019243,0.011762,0.020817,0.0093533,0.011231,0.016756,0.043405,0.17382,-45
0.021012,0.011848,0.015755,0.0090211,0.012837,0.016263,0.042023,0.15097,-45
0.021012,0.011848,0.015755,0.0090211,0.012837,0.016263,0.042023,0.15097,-45
0.021012,0.011848,0.015755,0.0090211,0.012837,0.016263,0.042023,0.15097,-45
0.023868,0.013532,0.021012,0.0098821,0.01338,0.018211,0.04291,0.15592,-45
0.023868,0.013532,0.021012,0.0098821,0.01338,0.018211,0.04291,0.15592,-45
0.026532,0.013681,0.019453,0.0098821,0.011762,0.017411,0.04317,0.1719,-45
0.025674,0.013681,0.01919,0.0095683,0.01227,0.017235,0.049698,0.16456,-45
0.025674,0.013681,0.01919,0.0095683,0.01227,0.017235,0.049698,0.16456,-45
0.027621,0.01496,0.022822,0.010384,0.010674,0.016074,0.058446,0.15361,-45
0.027621,0.01496,0.022822,0.010384,0.010674,0.016074,0.058446,0.15361,-45
0.022955,0.014754,0.017643,0.009674,0.012995,0.019401,0.056589,0.12116,-45
0.022955,0.014754,0.017643,0.009674,0.012995,0.019401,0.056589,0.12116,-45
0.022955,0.014754,0.017643,0.009674,0.012995,0.019401,0.056589,0.12116,-45
0.023351,0.014754,0.017758,0.0095683,0.012516,0.018488,0.051566,0.12558,-45
0.023351,0.014754,0.017758,0.0095683,0.012516,0.018488,0.051566,0.12558,-45
0.026068,0.013228,0.016137,0.010286,0.012837,0.017411,0.053159,0.13189,-45
0.026068,0.013228,0.016137,0.010286,0.012837,0.017411,0.053159,0.13189,-45
0.027213,0.013073,0.014823,0.0099845,0.013456,0.019348,0.059258,0.13201,-45
0.027213,0.013073,0.014823,0.0099845,0.013456,0.019348,0.059258,0.13201,-45
0.027213,0.013073,0.014823,0.0099845,0.013456,0.019348,0.059258,0.13201,-45
0.028987,0.012187,0.025911,0.0095683,0.011588,0.015494,0.0607,0.16521,-45
0.028987,0.012187,0.025911,0.0095683,0.011588,0.015494,0.0607,0.16521,-45
0.028987,0.012187,0.025911,0.0095683,0.011588,0.015494,0.0607,0.16521,-45
0.028987,0.012187,0.025911,0.0095683,0.011588,0.015494,0.0607,0.16521,-45
0.028987,0.012187,0.025911,0.0095683,0.011588,0.015494,0.0607,0.16521,-45
0.026647,0.011231,0.025516,0.011411,0.012103,0.015028,0.055573,0.17413,-45
0.026647,0.011231,0.025516,0.011411,0.012103,0.015028,0.055573,0.17413,-45
0.026647,0.011231,0.025516,0.011411,0.012103,0.015028,0.055573,0.17413,-45
0.025754,0.013902,0.030089,0.010286,0.012019,0.016388,0.047027,0.19185,-45
0.025754,0.013902,0.030089,0.010286,0.012019,0.016388,0.047027,0.19185,-45
0.025754,0.013902,0.030089,0.010286,0.012019,0.016388,0.047027,0.19185,-45
0.027474,0.014892,0.021866,0.0099845,0.011588,0.017352,0.069204,0.19716,-45
0.027474,0.014892,0.021866,0.0099845,0.011588,0.017352,0.069204,0.19716,-45
0.028024,0.015296,0.023654,0.0094614,0.011321,0.016695,0.071589,0.19488,-45
0.028024,0.015296,0.023654,0.0094614,0.011321,0.016695,0.071589,0.19488,-45
0.026185,0.013073,0.018098,0.0098821,0.011411,0.014048,0.071347,0.17441,-45
0.026185,0.013073,0.018098,0.0098821,0.011411,0.014048,0.071347,0.17441,-45
0.026185,0.013073,0.018098,0.0098821,0.011411,0.014048,0.071347,0.17441,-45
0.025235,0.013902,0.017643,0.012597,0.0115,0.014048,0.064848,0.16174,-45
0.025235,0.013902,0.017643,0.012597,0.0115,0.014048,0.064848,0.16174,-45
0.023953,0.012597,0.023088,0.013456,0.01315,0.017057,0.063677,0.14387,-45
0.023953,0.012597,0.023088,0.013456,0.01315,0.017057,0.063677,0.14387,-45
0.023953,0.012597,0.023088,0.013456,0.01315,0.017057,0.063677,0.14387,-45
0.02391,0.012353,0.023438,0.013073,0.012353,0.019713,0.067598,0.14716,-45
0.02391,0.012353,0.023438,0.013073,0.012353,0.019713,0.067598,0.14716,-45
0.026875,0.015028,0.025275,0.012353,0.012516,0.021348,0.077142,0.17668,-45
0.026875,0.015028,0.025275,0.012353,0.012516,0.021348,0.077142,0.17668,-45
0.02842,0.014892,0.026417,0.012019,0.013456,0.020817,0.076971,0.17454,-45
0.02842,0.014892,0.026417,0.012019,0.013456,0.020817,0.076971,0.17454,-45
0.02842,0.014892,0.026417,0.012019,0.013456,0.020817,0.076971,0.17454,-45
0.028598,0.015625,0.024499,0.010956,0.012516,0.019295,0.073232,0.17967,-45
0.028598,0.015625,0.024499,0.010956,0.012516,0.019295,0.073232,0.17967,-45
0.034262,0.013607,0.024581,0.0092439,0.01227,0.018815,0.066337,0.17029,-45
0.034262,0.013607,0.024581,0.0092439,0.01227,0.018815,0.066337,0.17029,-45
0.034262,0.013607,0.024581,0.0092439,0.01227,0.018815,0.066337,0.17029,-45
0.034262,0.013607,0.024581,0.0092439,0.01227,0.018815,0.066337,0.17029,-45
0.034262,0.013607,0.024581,0.0092439,0.01227,0.018815,0.066337,0.17029,-45
0.03339,0.010482,0.022777,0.0091332,0.01227,0.020272,0.056102,0.17184,-45
0.03339,0.010482,0.022777,0.0091332,0.01227,0.020272,0.056102,0.17184,-45
0.035315,0.010286,0.019137,0.010384,0.011934,0.019557,0.055628,0.16253,-45
0.035315,0.010286,0.019137,0.010384,0.011934,0.019557,0.055628,0.16253,-45
0.035315,0.010286,0.019137,0.010384,0.011934,0.019557,0.055628,0.16253,-45
0.034054,0.0098821,0.019137,0.01114,0.012916,0.02002,0.053541,0.15934,-45
0.034054,0.0098821,0.019137,0.01114,0.012916,0.02002,0.053541,0.15934,-45
0.029405,0.012353,0.025595,0.012916,0.013975,0.019557,0.067823,0.17288,-45
0.029405,0.012353,0.025595,0.012916,0.013975,0.019557,0.067823,0.17288,-45
0.028204,0.013073,0.026455,0.013681,0.015494,0.018488,0.069219,0.15913,-45
0.028204,0.013073,0.026455,0.013681,0.015494,0.018488,0.069219,0.15913,-45
0.028204,0.013073,0.026455,0.013681,0.015494,0.018488,0.069219,0.15913,-45
0.024664,0.014335,0.028705,0.013755,0.016074,0.017411,0.068376,0.16962,-45
0.024664,0.014335,0.028705,0.013755,0.016074,0.017411,0.068376,0.16962,-45
0.025674,0.012187,0.025714,0.013532,0.015428,0.018869,0.071218,0.14823,-45
0.025674,0.012187,0.025714,0.013532,0.015428,0.018869,0.071218,0.14823,-45
0.025674,0.012187,0.025714,0.013532,0.015428,0.018869,0.071218,0.14823,-45
0.026493,0.012995,0.02491,0.013829,0.015028,0.017986,0.070975,0.14833,-45
0.026493,0.012995,0.02491,0.013829,0.015028,0.017986,0.070975,0.14833,-45
0.028241,0.015028,0.022999,0.01412,0.015162,0.017527,0.072338,0.16674,-45
0.028241,0.015028,0.022999,0.01412,0.015162,0.017527,0.072338,0.16674,-45
0.028241,0.015028,0.022999,0.01412,0.015162,0.017527,0.072338,0.16674,-45
0.029817,0.014823,0.023739,0.013975,0.014754,0.017116,0.065036,0.1397,-45
0.029817,0.014823,0.023739,0.013975,0.014754,0.017116,0.065036,0.1397,-45
0.029817,0.014823,0.023739,0.013975,0.014754,0.017116,0.065036,0.1397,-45
0.029817,0.014823,0.025356,0.014192,0.015755,0.017643,0.065036,0.13883,-45
0.029817,0.014823,0.025356,0.014192,0.015755,0.017643,0.065036,0.13883,-45
0.027138,0.013304,0.020071,0.014192,0.016011,0.01645,0.056445,0.12723,-45
0.027138,0.013304,0.020071,0.014192,0.016011,0.01645,0.056445,0.12723,-45
0.028096,0.013975,0.026107,0.013681,0.01645,0.016756,0.056912,0.12728,-45
0.028096,0.013975,0.026107,0.013681,0.01645,0.016756,0.056912,0.12728,-45
0.028096,0.013975,0.026107,0.013681,0.01645,0.016756,0.056912,0.12728,-45
0.023995,0.01569,0.021395,0.013532,0.016074,0.016074,0.050227,0.16914,-45
0.022866,0.015162,0.021585,0.010863,0.012837,0.015428,0.042096,0.16042,-45
0.022866,0.015162,0.021585,0.010863,0.012837,0.015428,0.042096,0.16042,-45
0.022866,0.015162,0.021585,0.010863,0.012837,0.015428,0.042096,0.16042,-45
0.022866,0.015162,0.021585,0.010863,0.012837,0.015428,0.042096,0.16042,-45
0.022866,0.015162,0.021585,0.010863,0.012837,0.015428,0.042096,0.16042,-45
0.022866,0.015162,0.021585,0.010863,0.012837,0.015428,0.042096,0.16042,-45
0.023825,0.014406,0.018543,0.011848,0.01227,0.015296,0.047135,0.19029,-45
0.023825,0.014406,0.018543,0.011848,0.01227,0.015296,0.047135,0.19029,-45
0.020817,0.013456,0.01903,0.011049,0.01114,0.016756,0.063196,0.22232,-45
0.020817,0.013456,0.01903,0.011049,0.01114,0.016756,0.063196,0.22232,-45
0.023263,0.01338,0.02429,0.012187,0.01114,0.021156,0.063661,0.22505,-45
0.023263,0.01338,0.02429,0.012187,0.01114,0.021156,0.063661,0.22505,-45
0.023263,0.01338,0.02429,0.012187,0.01114,0.021156,0.063661,0.22505,-45
0.023263,0.01338,0.02429,0.012187,0.01114,0.021156,0.063661,0.22505,-45
0.023263,0.01338,0.02429,0.012187,0.01114,0.021156,0.063661,0.22505,-45
0.032432,0.016877,0.022051,0.011848,0.010186,0.022005,0.06851,0.21063,-45
0.032432,0.016877,0.022051,0.011848,0.010186,0.022005,0.06851,0.21063,-45
0.033512,0.017057,0.024992,0.0115,0.012103,0.021866,0.061383,0.16159,-45
0.033512,0.017057,0.024992,0.0115,0.012103,0.021866,0.061383,0.16159,-45
0.033512,0.017057,0.024992,0.0115,0.012103,0.021866,0.061383,0.16159,-45
0.031217,0.017527,0.020222,0.011848,0.011588,0.021443,0.071075,0.1462,-45
0.031217,0.017527,0.020222,0.011848,0.011588,0.021443,0.071075,0.1462,-45
0.022822,0.01569,0.019867,0.010086,0.011049,0.017235,0.068317,0.1386,-45
0.022822,0.01569,0.019867,0.010086,0.011049,0.017235,0.068317,0.1386,-45
0.022822,0.01569,0.019867,0.010086,0.011049,0.017235,0.068317,0.1386,-45
0.022822,0.01569,0.019867,0.010086,0.011049,0.017235,0.068317,0.1386,-45
0.022822,0.01569,0.019867,0.010086,0.011049,0.017235,0.068317,0.1386,-45
0.025832,0.015819,0.019713,0.0094614,0.010482,0.015162,0.072366,0.13154,-45
0.025832,0.015819,0.019713,0.0094614,0.010482,0.015162,0.072366,0.13154,-45
0.025555,0.014685,0.01903,0.0099845,0.0099845,0.016011,0.068376,0.18759,-45
0.025555,0.014685,0.01903,0.0099845,0.0099845,0.016011,0.068376,0.18759,-45
0.026068,0.014048,0.018652,0.011411,0.010482,0.015819,0.074431,0.20614,-45
0.026068,0.014048,0.018652,0.011411,0.010482,0.015819,0.074431,0.20614,-45
0.026068,0.014048,0.018652,0.011411,0.010482,0.015819,0.074431,0.20614,-45
0.026301,0.015362,0.017116,0.011675,0.012103,0.020522,0.088893,0.21778,-45
0.026301,0.015362,0.017116,0.011675,0.012103,0.020522,0.088893,0.21778,-45
0.022005,0.013228,0.019609,0.0115,0.012435,0.02106,0.084059,0.21453,-45
0.030592,0.01315,0.017352,0.0095683,0.013532,0.018869,0.077864,0.15336,-45
0.029646,0.014754,0.023351,0.0115,0.0099845,0.012597,0.026223,0.071404,0
0.028882,0.016877,0.02228,0.010769,0.012435,0.012435,0.026532,0.089532,0
0.028882,0.016877,0.02228,0.010769,0.012435,0.012435,0.026532,0.089532,0
0.028882,0.016877,0.02228,0.010769,0.012435,0.012435,0.026532,0.089532,0
0.028882,0.016877,0.02228,0.010769,0.012435,0.012435,0.026532,0.089532,0
0.028882,0.016877,0.02228,0.010769,0.012435,0.012435,0.026532,0.089532,0
0.022688,0.017815,0.02491,0.009674,0.013073,0.012187,0.023219,0.092428,0
0.022688,0.017815,0.02491,0.009674,0.013073,0.012187,0.023219,0.092428,0
0.024499,0.017469,0.022732,0.009674,0.013073,0.011049,0.025396,0.096898,0
0.024499,0.017469,0.022732,0.009674,0.013073,0.011049,0.025396,0.096898,0
0.024499,0.017469,0.022732,0.009674,0.013073,0.011049,0.025396,0.096898,0
0.025436,0.013829,0.022508,0.0089076,0.0098821,0.012597,0.023868,0.10864,0
0.025436,0.013829,0.022508,0.0089076,0.0098821,0.012597,0.023868,0.10864,0
0.025436,0.013829,0.022508,0.0089076,0.0098821,0.012597,0.023868,0.10864,0
0.025436,0.013829,0.022508,0.0089076,0.0098821,0.012597,0.023868,0.10864,0
0.025436,0.013829,0.022508,0.0089076,0.0098821,0.012597,0.023868,0.10864,0
0.027732,0.013829,0.021772,0.023176,0.010286,0.012916,0.023307,0.11263,0
0.027732,0.013829,0.021772,0.023176,0.010286,0.012916,0.023307,0.11263,0
0.027732,0.013829,0.021772,0.023176,0.010286,0.012916,0.023307,0.11263,0
0.026378,0.011321,0.024206,0.025674,0.011848,0.012353,0.023219,0.11444,0
0.026378,0.011321,0.024206,0.025674,0.011848,0.012353,0.023219,0.11444,0
0.026378,0.011321,0.024206,0.025674,0.011848,0.012353,0.023219,0.11444,0
0.025832,0.011675,0.023351,0.026532,0.014264,0.012678,0.024499,0.11796,0
0.025832,0.011675,0.023351,0.026532,0.014264,0.012678,0.024499,0.11796,0
0.024992,0.01114,0.023263,0.026532,0.014192,0.011411,0.026146,0.12105,0
0.024992,0.01114,0.023263,0.026532,0.014192,0.011411,0.026146,0.12105,0
0.024992,0.01114,0.023263,0.026532,0.014192,0.011411,0.026146,0.12105,0
0.020817,0.011934,0.022005,0.016011,0.014335,0.011411,0.026913,0.10983,0
0.020817,0.011934,0.022005,0.016011,0.014335,0.011411,0.026913,0.10983,0
0.020817,0.011934,0.022005,0.016011,0.014335,0.011411,0.026913,0.10983,0
0.020817,0.011934,0.022005,0.016011,0.014335,0.011411,0.026913,0.10983,0
0.020817,0.011934,0.022005,0.016011,0.014335,0.011411,0.026913,0.10983,0
0.022097,0.010482,0.021585,0.01114,0.010769,0.0093533,0.024664,0.10692,0
0.022097,0.010482,0.021585,0.01114,0.010769,0.0093533,0.024664,0.10692,0
0.022097,0.010482,0.021585,0.01114,0.010769,0.0093533,0.024664,0.10692,0
0.022326,0.010769,0.021726,0.011411,0.010674,0.0094614,0.024664,0.099119,0
0.022326,0.010769,0.021726,0.011411,0.010674,0.0094614,0.024664,0.099119,0
0.023088,0.01114,0.02149,0.011231,0.012678,0.010384,0.023219,0.10338,0
0.023088,0.01114,0.02149,0.011231,0.012678,0.010384,0.023219,0.10338,0
0.023088,0.01114,0.02149,0.011231,0.012678,0.010384,0.023219,0.10338,0
0.025114,0.012019,0.02149,0.012353,0.012435,0.012019,0.023219,0.093923,0
0.025114,0.012019,0.02149,0.012353,0.012435,0.012019,0.023219,0.093923,0
0.023263,0.010956,0.017294,0.010956,0.012353,0.013228,0.024332,0.10456,0
0.023263,0.010956,0.017294,0.010956,0.012353,0.013228,0.024332,0.10456,0
0.023263,0.010956,0.017294,0.010956,0.012353,0.013228,0.024332,0.10456,0
0.022051,0.012678,0.016937,0.010482,0.011848,0.013456,0.026455,0.10558,0
0.022051,0.012678,0.016937,0.010482,0.011848,0.013456,0.026455,0.10558,0
0.022051,0.012678,0.016937,0.010482,0.011848,0.013456,0.026455,0.10558,0
0.022051,0.012678,0.016937,0.010482,0.011848,0.013456,0.026455,0.10558,0
0.022051,0.012678,0.016937,0.010482,0.011848,0.013456,0.026455,0.10558,0
0.025235,0.012916,0.017176,0.0098821,0.011762,0.013975,0.022688,0.098831,0
0.025235,0.012916,0.017176,0.0098821,0.011762,0.013975,0.022688,0.098831,0
0.025235,0.012916,0.017176,0.0098821,0.011762,0.013975,0.022688,0.098831,0
0.029162,0.012353,0.01645,0.010578,0.010769,0.014546,0.024788,0.1434,0
0.029162,0.012353,0.01645,0.010578,0.010769,0.014546,0.024788,0.1434,0
0.028456,0.011049,0.016388,0.010384,0.010674,0.014335,0.025595,0.1396,0
0.028456,0.011049,0.016388,0.010384,0.010674,0.014335,0.025595,0.1396,0
0.028456,0.011049,0.016388,0.010384,0.010674,0.014335,0.025595,0.1396,0
0.027658,0.010286,0.015819,0.010956,0.010186,0.014546,0.022189,0.13824,0
0.027658,0.010286,0.015819,0.010956,0.010186,0.014546,0.022189,0.13824,0
0.027658,0.010286,0.015819,0.010956,0.010186,0.014546,0.022189,0.13824,0
0.031509,0.012103,0.019083,0.011231,0.01114,0.015755,0.02408,0.15501,0
0.031509,0.012103,0.019083,0.011231,0.01114,0.015755,0.02408,0.15501,0
0.028882,0.011321,0.021443,0.01114,0.012678,0.013456,0.024332,0.11312,0
0.028882,0.011321,0.021443,0.01114,0.012678,0.013456,0.024332,0.11312,0
0.028882,0.011321,0.021443,0.01114,0.012678,0.013456,0.024332,0.11312,0
0.026837,0.0087927,0.018377,0.010086,0.012103,0.012435,0.026107,0.088377,0
0.026837,0.0087927,0.018377,0.010086,0.012103,0.012435,0.026107,0.088377,0
0.026837,0.0087927,0.018377,0.010086,0.012103,0.012435,0.026107,0.088377,0
0.026837,0.0087927,0.018377,0.010086,0.012103,0.012435,0.026107,0.088377,0
0.026837,0.0087927,0.018377,0.010086,0.012103,0.012435,0.026107,0.088377,0
0.026837,0.0087927,0.018377,0.010086,0.012103,0.012435,0.026107,0.088377,0
0.026837,0.0087927,0.018377,0.010086,0.012103,0.012435,0.026107,0.088377,0
0.040268,0.015362,0.02228,0.010086,0.012353,0.013755,0.025356,0.12616,0
0.040268,0.015362,0.02228,0.010086,0.012353,0.013755,0.025356,0.12616,0
0.040268,0.015362,0.02228,0.010086,0.012353,0.013755,0.025356,0.12616,0
0.040268,0.015362,0.02228,0.010086,0.012353,0.013755,0.025356,0.12616,0
0.040268,0.015362,0.02228,0.010086,0.012353,0.013755,0.025356,0.12616,0
0.040268,0.015362,0.02228,0.010086,0.012353,0.013755,0.025356,0.12616,0
0.034909,0.013902,0.023307,0.010863,0.011675,0.013073,0.025315,0.096234,0
0.034909,0.013902,0.023307,0.010863,0.011675,0.013073,0.025315,0.096234,0
0.034909,0.013902,0.023307,0.010863,0.011675,0.013073,0.025315,0.096234,0
0.034909,0.013902,0.023307,0.010863,0.011675,0.013073,0.025315,0.096234,0
0.034909,0.013902,0.023307,0.010863,0.011675,0.013073,0.025315,0.096234,0
0.029336,0.015162,0.02391,0.01315,0.012516,0.010384,0.017986,0.10521,0
0.029336,0.015162,0.02391,0.01315,0.012516,0.010384,0.017986,0.10521,0
0.029336,0.015162,0.02391,0.01315,0.012516,0.010384,0.017986,0.10521,0
0.033238,0.016325,0.023176,0.011675,0.012353,0.010384,0.015755,0.1027,0
0.033238,0.016325,0.023176,0.011675,0.012353,0.010384,0.015755,0.1027,0
0.036141,0.018322,0.023481,0.011588,0.011934,0.010674,0.016263,0.092911,0
0.036141,0.018322,0.023481,0.011588,0.011934,0.010674,0.016263,0.092911,0
0.036141,0.018322,0.023481,0.011588,0.011934,0.010674,0.016263,0.092911,0
0.034587,0.017176,0.020422,0.012019,0.01227,0.0098821,0.017057,0.076971,0
0.034587,0.017176,0.020422,0.012019,0.01227,0.0098821,0.017057,0.076971,0
0.034587,0.017176,0.020422,0.012019,0.01227,0.0098821,0.017057,0.076971,0
0.036056,0.018488,0.024581,0.011848,0.011934,0.010956,0.02067,0.085272,0
0.036056,0.018488,0.024581,0.011848,0.011934,0.010956,0.02067,0.085272,0
0.037359,0.017986,0.022372,0.011049,0.010482,0.011848,0.023438,0.10037,0
0.037359,0.017986,0.022372,0.011049,0.010482,0.011848,0.023438,0.10037,0
0.028634,0.014685,0.019969,0.011411,0.01114,0.011934,0.02595,0.12748,0
0.028634,0.014685,0.019969,0.011411,0.01114,0.011934,0.02595,0.12748,0
0.028634,0.014685,0.019969,0.011411,0.01114,0.011934,0.02595,0.12748,0
0.028527,0.014616,0.020422,0.010674,0.010384,0.012758,0.024992,0.12183,0
0.028527,0.014616,0.020422,0.010674,0.010384,0.012758,0.024992,0.12183,0
0.028527,0.014616,0.020422,0.010674,0.010384,0.012758,0.024992,0.12183,0
0.026532,0.011321,0.015428,0.011411,0.011231,0.01338,0.024664,0.11999,0
0.026532,0.011321,0.015428,0.011411,0.011231,0.01338,0.024664,0.11999,0
0.025595,0.011321,0.017643,0.011675,0.010956,0.012916,0.024499,0.11448,0
0.025595,0.011321,0.017643,0.011675,0.010956,0.012916,0.024499,0.11448,0
0.025595,0.011321,0.017643,0.011675,0.010956,0.012916,0.024499,0.11448,0
0.029749,0.012837,0.019401,0.011762,0.010482,0.012435,0.021772,0.12523,0
0.029749,0.012837,0.019401,0.011762,0.010482,0.012435,0.021772,0.12523,0
0.029749,0.012837,0.019401,0.011762,0.010482,0.012435,0.021772,0.12523,0
0.029749,0.012837,0.019401,0.011762,0.010482,0.012435,0.021772,0.12523,0
0.029749,0.012837,0.019401,0.011762,0.010482,0.012435,0.021772,0.12523,0
0.03019,0.013228,0.02002,0.011762,0.011321,0.013829,0.023176,0.13479,0
0.03019,0.013228,0.02002,0.011762,0.011321,0.013829,0.023176,0.13479,0
0.03019,0.013228,0.02002,0.011762,0.011321,0.013829,0.023176,0.13479,0
0.028096,0.012516,0.019661,0.0099845,0.012435,0.01412,0.022097,0.14848,0
0.028096,0.012516,0.019661,0.0099845,0.012435,0.01412,0.022097,0.14848,0
0.028096,0.012516,0.019661,0.0099845,0.012435,0.01412,0.022097,0.14848,0
0.027987,0.012187,0.020172,0.009674,0.012353,0.01412,0.022235,0.15358,0
0.027987,0.012187,0.020172,0.009674,0.012353,0.01412,0.022235,0.15358,0
0.025793,0.012187,0.01556,0.010384,0.011411,0.013456,0.022822,0.1423,0
0.025793,0.012187,0.01556,0.010384,0.011411,0.013456,0.022822,0.1423,0
0.025793,0.012187,0.01556,0.010384,0.011411,0.013456,0.022822,0.1423,0
0.025793,0.012187,0.01556,0.010384,0.011411,0.013456,0.022822,0.1423,0
0.025793,0.012187,0.01556,0.010384,0.011411,0.013456,0.022822,0.1423,0
0.024374,0.012678,0.016011,0.010384,0.011411,0.010769,0.020963,0.14048,0
0.024374,0.012678,0.016011,0.010384,0.011411,0.010769,0.020963,0.14048,0
0.023953,0.014406,0.020768,0.011049,0.010086,0.011231,0.023394,0.13367,0
0.023953,0.014406,0.020768,0.011049,0.010086,0.011231,0.023394,0.13367,0
0.023953,0.014406,0.020768,0.011049,0.010086,0.011231,0.023394,0.13367,0
0.025754,0.013829,0.020373,0.011321,0.010186,0.010863,0.022822,0.12042,0
0.025754,0.013829,0.020373,0.011321,0.010186,0.010863,0.022822,0.12042,0
0.025754,0.013829,0.020373,0.011321,0.010186,0.010863,0.022822,0.12042,0
0.027362,0.013681,0.022417,0.0115,0.0115,0.010769,0.022097,0.10106,0
0.027362,0.013681,0.022417,0.0115,0.0115,0.010769,0.022097,0.10106,0
0.028132,0.01338,0.021585,0.010769,0.01227,0.010186,0.023132,0.10948,0
0.028132,0.01338,0.021585,0.010769,0.01227,0.010186,0.023132,0.10948,0
0.028132,0.01338,0.021585,0.010769,0.01227,0.010186,0.023132,0.10948,0
0.029022,0.011762,0.016137,0.010956,0.013681,0.010578,0.023868,0.11165,0
0.029022,0.011762,0.016137,0.010956,0.013681,0.010578,0.023868,0.11165,0
0.029022,0.011762,0.016137,0.010956,0.013681,0.010578,0.023868,0.11165,0
0.026685,0.012353,0.016573,0.009674,0.013975,0.010769,0.02067,0.10775,0
0.026685,0.012353,0.016573,0.009674,0.013975,0.010769,0.02067,0.10775,0
0.023995,0.013681,0.019764,0.010286,0.015229,0.011321,0.018761,0.10424,0
0.023995,0.013681,0.019764,0.010286,0.015229,0.011321,0.018761,0.10424,0
0.023995,0.013681,0.019764,0.010286,0.015229,0.011321,0.018761,0.10424,0
0.026875,0.013456,0.020222,0.01114,0.01412,0.011848,0.017469,0.11145,0
0.026875,0.013456,0.020222,0.01114,0.01412,0.011848,0.017469,0.11145,0
0.026875,0.013456,0.020222,0.01114,0.01412,0.011848,0.017469,0.11145,0
0.030857,0.014546,0.021726,0.011762,0.013607,0.014616,0.016756,0.10897,0
0.030857,0.014546,0.021726,0.011762,0.013607,0.014616,0.016756,0.10897,0
0.03138,0.013975,0.022143,0.0115,0.013607,0.014892,0.017057,0.1066,0
0.03138,0.013975,0.022143,0.0115,0.013607,0.014892,0.017057,0.1066,0
0.03262,0.01315,0.020963,0.0095683,0.011588,0.01227,0.013304,0.10213,0
0.03262,0.01315,0.020963,0.0095683,0.011588,0.01227,0.013304,0.10213,0
0.03262,0.01315,0.020963,0.0095683,0.011588,0.01227,0.013304,0.10213,0
0.031574,0.013681,0.021866,0.0098821,0.010863,0.009674,0.013304,0.09738,0
0.031574,0.013681,0.021866,0.0098821,0.010863,0.009674,0.013304,0.09738,0
0.031217,0.014616,0.020866,0.0097786,0.010384,0.011411,0.017929,0.092097,0
0.031217,0.014616,0.020866,0.0097786,0.010384,0.011411,0.017929,0.092097,0
0.031217,0.014616,0.020866,0.0097786,0.010384,0.011411,0.017929,0.092097,0
0.027987,0.015229,0.019764,0.010384,0.011848,0.011231,0.018433,0.092659,0
0.027987,0.015229,0.019764,0.010384,0.011848,0.011231,0.018433,0.092659,0
0.026455,0.014476,0.015883,0.0099845,0.011762,0.011762,0.021866,0.084469,0
0.026455,0.014476,0.015883,0.0099845,0.011762,0.011762,0.021866,0.084469,0
0.026455,0.014476,0.015883,0.0099845,0.011762,0.011762,0.021866,0.084469,0
0.02595,0.014406,0.022643,0.010578,0.011049,0.012597,0.022777,0.086739,0
0.02595,0.014406,0.022643,0.010578,0.011049,0.012597,0.022777,0.086739,0
0.02595,0.014406,0.022643,0.010578,0.011049,0.012597,0.022777,0.086739,0
0.021679,0.014546,0.022326,0.0084385,0.011848,0.013073,0.02657,0.077327,0
0.068806,0.046153,0.046307,0.013975,0.027768,0.020121,0.059447,0.2444,50
0.061101,0.044424,0.048789,0.016511,0.03089,0.020915,0.049575,0.16557,50
0.068436,0.047543,0.048054,0.016325,0.031862,0.021108,0.055445,0.28513,50
0.068436,0.047543,0.048054,0.016325,0.031862,0.021108,0.055445,0.28513,50
0.068436,0.047543,0.048054,0.016325,0.031862,0.021108,0.055445,0.28513,50
0.059549,0.045308,0.047286,0.015362,0.034793,0.021395,0.05407,0.27954,50
0.059549,0.045308,0.047286,0.015362,0.034793,0.021395,0.05407,0.27954,50
0.058184,0.045375,0.070803,0.014546,0.031735,0.020373,0.052096,0.31714,50
0.058184,0.045375,0.070803,0.014546,0.031735,0.020373,0.052096,0.31714,50
0.055261,0.031926,0.075314,0.012597,0.029162,0.017176,0.04571,0.27613,50
0.055261,0.031926,0.075314,0.012597,0.029162,0.017176,0.04571,0.27613,50
0.055261,0.031926,0.075314,0.012597,0.029162,0.017176,0.04571,0.27613,50
0.055261,0.031926,0.075314,0.012597,0.029162,0.017176,0.04571,0.27613,50
0.055261,0.031926,0.075314,0.012597,0.029162,0.017176,0.04571,0.27613,50
0.051803,0.039141,0.083524,0.014406,0.025476,0.017986,0.051783,0.21729,50
0.051803,0.039141,0.083524,0.014406,0.025476,0.017986,0.051783,0.21729,50
0.051803,0.039141,0.083524,0.014406,0.025476,0.017986,0.051783,0.21729,50
0.055573,0.04052,0.065411,0.016263,0.020373,0.019401,0.057481,0.19697,50
0.055573,0.04052,0.065411,0.016263,0.020373,0.019401,0.057481,0.19697,50
0.05539,0.04082,0.073065,0.017294,0.019969,0.019401,0.057232,0.20186,50
0.05539,0.04082,0.073065,0.017294,0.019969,0.019401,0.057232,0.20186,50
0.05539,0.04082,0.073065,0.017294,0.019969,0.019401,0.057232,0.20186,50
0.053427,0.039115,0.076107,0.017057,0.02228,0.018155,0.049246,0.19382,50
0.053427,0.039115,0.076107,0.017057,0.02228,0.018155,0.049246,0.19382,50
0.073703,0.042168,0.07916,0.016263,0.028204,0.021443,0.060666,0.20916,50
0.073703,0.042168,0.07916,0.016263,0.028204,0.021443,0.060666,0.20916,50
0.073703,0.042168,0.07916,0.016263,0.028204,0.021443,0.060666,0.20916,50
0.071204,0.03927,0.077458,0.015494,0.032651,0.019713,0.051685,0.17858,50
0.071204,0.03927,0.077458,0.015494,0.032651,0.019713,0.051685,0.17858,50
0.074376,0.047607,0.099876,0.016877,0.031926,0.023394,0.063581,0.20278,50
0.074376,0.047607,0.099876,0.016877,0.031926,0.023394,0.063581,0.20278,50
0.074376,0.047607,0.099876,0.016877,0.031926,0.023394,0.063581,0.20278,50
0.074376,0.047607,0.099876,0.016877,0.031926,0.023394,0.063581,0.20278,50
0.074376,0.047607,0.099876,0.016877,0.031926,0.023394,0.063581,0.20278,50
0.065317,0.038033,0.093533,0.014823,0.03019,0.021679,0.051428,0.1634,50
0.065317,0.038033,0.093533,0.014823,0.03019,0.021679,0.051428,0.1634,50
0.065317,0.038033,0.093533,0.014823,0.03019,0.021679,0.051428,0.1634,50
0.063051,0.058167,0.093424,0.015755,0.029988,0.019505,0.049616,0.17982,50
0.063051,0.058167,0.093424,0.015755,0.029988,0.019505,0.049616,0.17982,50
0.061483,0.058167,0.093478,0.015428,0.028563,0.019816,0.049534,0.17889,50
0.061483,0.058167,0.093478,0.015428,0.028563,0.019816,0.049534,0.17889,50
0.053045,0.05709,0.075328,0.015095,0.032526,0.018815,0.04057,0.1949,50
0.053045,0.05709,0.075328,0.015095,0.032526,0.018815,0.04057,0.1949,50
0.053045,0.05709,0.075328,0.015095,0.032526,0.018815,0.04057,0.1949,50
0.05337,0.066902,0.085391,0.014192,0.031217,0.018869,0.046021,0.21182,50
0.05337,0.066902,0.085391,0.014192,0.031217,0.018869,0.046021,0.21182,50
0.052233,0.065302,0.081503,0.013975,0.030425,0.018869,0.042457,0.22139,50
0.052233,0.065302,0.081503,0.013975,0.030425,0.018869,0.042457,0.22139,50
0.052233,0.065302,0.081503,0.013975,0.030425,0.018869,0.042457,0.22139,50
0.05192,0.051151,0.065224,0.012995,0.027841,0.01556,0.052833,0.20603,50
0.05192,0.051151,0.065224,0.012995,0.027841,0.01556,0.052833,0.20603,50
0.052582,0.048286,0.11539,0.015028,0.019918,0.015028,0.056391,0.19755,50
0.052582,0.048286,0.11539,0.015028,0.019918,0.015028,0.056391,0.19755,50
0.048643,0.039989,0.11057,0.015625,0.019505,0.014264,0.055701,0.20287,50
0.048643,0.039989,0.11057,0.015625,0.019505,0.014264,0.055701,0.20287,50
0.048643,0.039989,0.11057,0.015625,0.019505,0.014264,0.055701,0.20287,50
0.056607,0.049411,0.11981,0.015819,0.02944,0.01903,0.045532,0.18053,50
0.056607,0.049411,0.11981,0.015819,0.02944,0.01903,0.045532,0.18053,50
0.056607,0.049411,0.11981,0.015819,0.02944,0.01903,0.045532,0.18053,50
0.056607,0.049411,0.11981,0.015819,0.02944,0.01903,0.045532,0.18053,50
0.056607,0.049411,0.11981,0.015819,0.02944,0.01903,0.045532,0.18053,50
0.054855,0.049018,0.069848,0.013304,0.029681,0.019609,0.049554,0.21202,50
0.054855,0.049018,0.069848,0.013304,0.029681,0.019609,0.049554,0.21202,50
0.060733,0.068272,0.13314,0.01496,0.030625,0.023995,0.050791,0.19282,50
0.060733,0.068272,0.13314,0.01496,0.030625,0.023995,0.050791,0.19282,50
0.060733,0.068272,0.13314,0.01496,0.030625,0.023995,0.050791,0.19282,50
0.055077,0.066061,0.12974,0.015362,0.026799,0.023132,0.05119,0.19141,50
0.055077,0.066061,0.12974,0.015362,0.026799,0.023132,0.05119,0.19141,50
0.055077,0.066061,0.12974,0.015362,0.026799,0.023132,0.05119,0.19141,50
0.055993,0.057144,0.13028,0.014546,0.02454,0.021012,0.054352,0.18966,50
0.055993,0.057144,0.13028,0.014546,0.02454,0.021012,0.054352,0.18966,50
0.057992,0.059515,0.14658,0.017815,0.024248,0.020571,0.050791,0.1547,50
0.057992,0.059515,0.14658,0.017815,0.024248,0.020571,0.050791,0.1547,50
0.057992,0.059515,0.14658,0.017815,0.024248,0.020571,0.050791,0.1547,50
0.047586,0.037058,0.090762,0.015755,0.024122,0.016937,0.046395,0.16132,50
0.047586,0.037058,0.090762,0.015755,0.024122,0.016937,0.046395,0.16132,50
0.047586,0.037058,0.090762,0.015755,0.024122,0.016937,0.046395,0.16132,50
0.050329,0.046483,0.089407,0.015947,0.029543,0.020323,0.043987,0.15902,50
0.050329,0.046483,0.089407,0.015947,0.029543,0.020323,0.043987,0.15902,50
0.050329,0.046483,0.089407,0.015947,0.029543,0.020323,0.043987,0.15902,50
0.050329,0.046483,0.089407,0.015947,0.029543,0.020323,0.043987,0.15902,50
0.050329,0.046483,0.089407,0.015947,0.029543,0.020323,0.043987,0.15902,50
0.049963,0.044079,0.050711,0.012916,0.02842,0.021252,0.04782,0.18045,50
0.049963,0.044079,0.050711,0.012916,0.02842,0.021252,0.04782,0.18045,50
0.049963,0.044079,0.050711,0.012916,0.02842,0.021252,0.04782,0.18045,50
0.049963,0.044079,0.050711,0.012916,0.02842,0.021252,0.04782,0.18045,50
0.049059,0.034676,0.082446,0.013304,0.026875,0.018976,0.04681,0.14591,50
0.049059,0.034676,0.082446,0.013304,0.026875,0.018976,0.04681,0.14591,50
0.049059,0.034676,0.082446,0.013304,0.026875,0.018976,0.04681,0.14591,50
0.05127,0.041315,0.088411,0.01496,0.028776,0.018433,0.046962,0.12161,50
0.05127,0.041315,0.088411,0.01496,0.028776,0.018433,0.046962,0.12161,50
0.05127,0.041315,0.088411,0.01496,0.028776,0.018433,0.046962,0.12161,50
0.05127,0.041315,0.088411,0.01496,0.028776,0.018433,0.046962,0.12161,50
0.05127,0.041315,0.088411,0.01496,0.028776,0.018433,0.046962,0.12161,50
0.05127,0.041315,0.088411,0.01496,0.028776,0.018433,0.046962,0.12161,50
0.048033,0.03763,0.075057,0.015095,0.029988,0.019083,0.04324,0.15449,50
0.048033,0.03763,0.075057,0.015095,0.029988,0.019083,0.04324,0.15449,50
0.048935,0.046219,0.058568,0.016388,0.030923,0.019713,0.046918,0.15244,50
0.048935,0.046219,0.058568,0.016388,0.030923,0.019713,0.046918,0.15244,50
0.048935,0.046219,0.058568,0.016388,0.030923,0.019713,0.046918,0.15244,50
0.047264,0.047005,0.071118,0.015362,0.030923,0.019137,0.042457,0.14824,50
0.047264,0.047005,0.071118,0.015362,0.030923,0.019137,0.042457,0.14824,50
0.045821,0.041487,0.067342,0.013829,0.03089,0.019713,0.045554,0.14193,50
0.045821,0.041487,0.067342,0.013829,0.03089,0.019713,0.045554,0.14193,50
0.045821,0.041487,0.067342,0.013829,0.03089,0.019713,0.045554,0.14193,50
0.047905,0.037899,0.07252,0.014048,0.029886,0.020866,0.049101,0.15888,50
0.047905,0.037899,0.07252,0.014048,0.029886,0.020866,0.049101,0.15888,50
0.047735,0.038459,0.072267,0.014264,0.030459,0.020915,0.047199,0.15915,50
0.047735,0.038459,0.072267,0.014264,0.030459,0.020915,0.047199,0.15915,50
0.047735,0.038459,0.072267,0.014264,0.030459,0.020915,0.047199,0.15915,50
0.046021,0.031606,0.076785,0.013829,0.028987,0.019348,0.047457,0.15534,50
0.046021,0.031606,0.076785,0.013829,0.028987,0.019348,0.047457,0.15534,50
0.049963,0.029681,0.076971,0.014546,0.029646,0.019348,0.04324,0.15726,50
0.049963,0.029681,0.076971,0.014546,0.029646,0.019348,0.04324,0.15726,50
0.049963,0.029681,0.076971,0.014546,0.029646,0.019348,0.04324,0.15726,50
0.051901,0.035487,0.088365,0.016511,0.035659,0.019348,0.051448,0.16814,50
0.051901,0.035487,0.088365,0.016511,0.035659,0.019348,0.051448,0.16814,50
0.050611,0.032053,0.085308,0.015819,0.03138,0.017701,0.04401,0.17726,50
0.050611,0.032053,0.085308,0.015819,0.03138,0.017701,0.04401,0.17726,50
0.050611,0.032053,0.085308,0.015819,0.03138,0.017701,0.04401,0.17726,50
0.050591,0.03447,0.091754,0.01556,0.032589,0.017294,0.044217,0.19066,50
0.050591,0.03447,0.091754,0.01556,0.032589,0.017294,0.044217,0.19066,50
0.053787,0.040845,0.094183,0.017585,0.032463,0.016756,0.046918,0.18946,50
0.053787,0.040845,0.094183,0.017585,0.032463,0.016756,0.046918,0.18946,50
0.053787,0.040845,0.094183,0.017585,0.032463,0.016756,0.046918,0.18946,50
0.039734,0.033994,0.074595,0.016695,0.03089,0.016511,0.041561,0.20575,50
0.039734,0.033994,0.074595,0.016695,0.03089,0.016511,0.041561,0.20575,50
0.039734,0.033994,0.074595,0.016695,0.03089,0.016511,0.041561,0.20575,50
0.041951,0.037331,0.082087,0.016937,0.031767,0.016074,0.039862,0.20506,50
0.041951,0.037331,0.082087,0.016937,0.031767,0.016074,0.039862,0.20506,50
0.049923,0.058897,0.077274,0.017116,0.0394,0.019713,0.041291,0.17736,50
0.049923,0.058897,0.077274,0.017116,0.0394,0.019713,0.041291,0.17736,50
0.049923,0.058897,0.077274,0.017116,0.0394,0.019713,0.041291,0.17736,50
0.048914,0.057481,0.067973,0.018707,0.039218,0.020272,0.042529,0.18339,50
0.048914,0.057481,0.067973,0.018707,0.039218,0.020272,0.042529,0.18339,50
0.053025,0.072197,0.073135,0.018042,0.038722,0.020571,0.04161,0.19002,50
0.053025,0.072197,0.073135,0.018042,0.038722,0.020571,0.04161,0.19002,50
0.053025,0.072197,0.073135,0.018042,0.038722,0.020571,0.04161,0.19002,50
0.065659,0.075866,0.068983,0.017411,0.038565,0.02228,0.051547,0.17579,50
0.065659,0.075866,0.068983,0.017411,0.038565,0.02228,0.051547,0.17579,50
0.065659,0.075866,0.068983,0.017411,0.038565,0.02228,0.051547,0.17579,50
0.067928,0.068777,0.07129,0.016997,0.038565,0.023219,0.054239,0.17618,50
0.067928,0.068777,0.07129,0.016997,0.038565,0.023219,0.054239,0.17618,50
0.070095,0.070874,0.075422,0.020121,0.033421,0.021348,0.053446,0.16982,50
0.070095,0.070874,0.075422,0.020121,0.033421,0.021348,0.053446,0.16982,50
0.070095,0.070874,0.075422,0.020121,0.033421,0.021348,0.053446,0.16982,50
0.065891,0.05123,0.074908,0.02067,0.031735,0.019401,0.050711,0.16994,50
0.065891,0.05123,0.074908,0.02067,0.031735,0.019401,0.050711,0.16994,50
0.065891,0.05123,0.074908,0.02067,0.031735,0.019401,0.050711,0.16994,50
0.063067,0.048096,0.068287,0.020571,0.029681,0.017585,0.048496,0.18423,50
0.063067,0.048096,0.068287,0.020571,0.029681,0.017585,0.048496,0.18423,50
0.057886,0.04551,0.075664,0.022097,0.030492,0.01645,0.047329,0.23732,50
0.057886,0.04551,0.075664,0.022097,0.030492,0.01645,0.047329,0.23732,50
0.057886,0.04551,0.075664,0.022097,0.030492,0.01645,0.047329,0.23732,50
0.054669,0.034646,0.070182,0.019661,0.030123,0.018652,0.049163,0.26461,50
0.054669,0.034646,0.070182,0.019661,0.030123,0.018652,0.049163,0.26461,50
0.056983,0.036,0.062695,0.016573,0.029022,0.018815,0.051842,0.25513,50
0.056983,0.036,0.062695,0.016573,0.029022,0.018815,0.051842,0.25513,50
0.056983,0.036,0.062695,0.016573,0.029022,0.018815,0.051842,0.25513,50
0.060347,0.034939,0.056912,0.015428,0.029646,0.019918,0.05291,0.263,50
0.060347,0.034939,0.056912,0.015428,0.029646,0.019918,0.05291,0.263,50
0.063099,0.029266,0.03867,0.016074,0.027987,0.020222,0.055021,0.25733,50
0.063099,0.029266,0.03867,0.016074,0.027987,0.020222,0.055021,0.25733,50
0.060482,0.044993,0.040895,0.015296,0.026532,0.019867,0.056463,0.18297,50
0.060482,0.044993,0.040895,0.015296,0.026532,0.019867,0.056463,0.18297,50
0.060482,0.044993,0.040895,0.015296,0.026532,0.019867,0.056463,0.18297,50
0.058914,0.045241,0.040545,0.015755,0.026223,0.019505,0.052524,0.18277,50
0.058914,0.045241,0.040545,0.015755,0.026223,0.019505,0.052524,0.18277,50
0.059069,0.046918,0.049142,0.015296,0.024705,0.021108,0.051665,0.16058,50
0.059069,0.046918,0.049142,0.015296,0.024705,0.021108,0.051665,0.16058,50
0.039862,0.044424,0.055774,0.01556,0.022999,0.018815,0.046285,0.17269,50
0.039862,0.044424,0.055774,0.01556,0.022999,0.018815,0.046285,0.17269,50
0.039862,0.044424,0.055774,0.01556,0.022999,0.018815,0.046285,0.17269,50
0.039036,0.043917,0.069087,0.015362,0.022866,0.018543,0.043475,0.15088,50
0.039036,0.043917,0.069087,0.015362,0.022866,0.018543,0.043475,0.15088,50
0.044584,0.028277,0.066552,0.015625,0.028634,0.01903,0.04067,0.14965,50
0.044584,0.028277,0.066552,0.015625,0.028634,0.01903,0.04067,0.14965,50
0.044584,0.028277,0.066552,0.015625,0.028634,0.01903,0.04067,0.14965,50
0.056156,0.034617,0.067206,0.0162,0.034054,0.018488,0.053957,0.16988,50
0.056156,0.034617,0.067206,0.0162,0.034054,0.018488,0.053957,0.16988,50
0.05592,0.036197,0.067568,0.015229,0.033904,0.018543,0.053064,0.15878,50
0.035459,0.054426,0.081039,0.016011,0.038801,0.04082,0.056337,0.20199,-50
0.041167,0.060263,0.055993,0.015095,0.027548,0.030725,0.048391,0.18035,-50
0.041167,0.060263,0.055993,0.015095,0.027548,0.030725,0.048391,0.18035,-50
0.041167,0.060263,0.055993,0.015095,0.027548,0.030725,0.048391,0.18035,-50
0.037495,0.061167,0.056391,0.015229,0.025275,0.026378,0.048307,0.18623,-50
0.037495,0.061167,0.056391,0.015229,0.025275,0.026378,0.048307,0.18623,-50
0.032432,0.054051,0.069964,0.014476,0.034114,0.024581,0.046109,0.18119,-50
0.032432,0.054051,0.069964,0.014476,0.034114,0.024581,0.046109,0.18119,-50
0.032432,0.054051,0.069964,0.014476,0.034114,0.024581,0.046109,0.18119,-50
0.032432,0.054051,0.069964,0.014476,0.034114,0.024581,0.046109,0.18119,-50
0.032432,0.054051,0.069964,0.014476,0.034114,0.024581,0.046109,0.18119,-50
0.029197,0.053312,0.072253,0.013902,0.034909,0.025674,0.052582,0.15329,-50
0.029197,0.053312,0.072253,0.013902,0.034909,0.025674,0.052582,0.15329,-50
0.029197,0.053312,0.072253,0.013902,0.034909,0.025674,0.052582,0.15329,-50
0.019816,0.037765,0.071461,0.013456,0.040369,0.024581,0.048768,0.18318,-50
0.019816,0.037765,0.071461,0.013456,0.040369,0.024581,0.048768,0.18318,-50
0.020222,0.033994,0.058845,0.012435,0.0383,0.020866,0.05881,0.17404,-50
0.020222,0.033994,0.058845,0.012435,0.0383,0.020866,0.05881,0.17404,-50
0.025396,0.032022,0.053083,0.013681,0.032401,0.019609,0.050651,0.18994,-50
0.025396,0.032022,0.053083,0.013681,0.032401,0.019609,0.050651,0.18994,-50
0.025396,0.032022,0.053083,0.013681,0.032401,0.019609,0.050651,0.18994,-50
0.025396,0.032022,0.053083,0.013681,0.032401,0.019609,0.050651,0.18994,-50
0.025396,0.032022,0.053083,0.013681,0.032401,0.019609,0.050651,0.18994,-50
0.025396,0.032022,0.053083,0.013681,0.032401,0.019609,0.050651,0.18994,-50
0.027511,0.033146,0.056894,0.013829,0.032243,0.019969,0.048475,0.20518,-50
0.027511,0.033146,0.056894,0.013829,0.032243,0.019969,0.048475,0.20518,-50
0.028634,0.039708,0.053844,0.012103,0.021912,0.021395,0.046395,0.20126,-50
0.028634,0.039708,0.053844,0.012103,0.021912,0.021395,0.046395,0.20126,-50
0.028634,0.039708,0.053844,0.012103,0.021912,0.021395,0.046395,0.20126,-50
0.02874,0.0394,0.054873,0.011848,0.021959,0.021252,0.047242,0.20726,-50
0.02874,0.0394,0.054873,0.011848,0.021959,0.021252,0.047242,0.20726,-50
0.027063,0.038827,0.053159,0.012019,0.019243,0.02002,0.035858,0.20457,-50
0.027063,0.038827,0.053159,0.012019,0.019243,0.02002,0.035858,0.20457,-50
0.025754,0.03488,0.062857,0.012435,0.015494,0.015428,0.03692,0.19331,-50
0.025754,0.03488,0.062857,0.012435,0.015494,0.015428,0.03692,0.19331,-50
0.027026,0.03293,0.058272,0.012353,0.012758,0.015428,0.036477,0.19159,-50
0.027026,0.03293,0.058272,0.012353,0.012758,0.015428,0.036477,0.19159,-50
0.026837,0.033299,0.061317,0.012103,0.011675,0.012435,0.038617,0.19372,-50
0.026837,0.033299,0.061317,0.012103,0.011675,0.012435,0.038617,0.19372,-50
0.026837,0.033299,0.061317,0.012103,0.011675,0.012435,0.038617,0.19372,-50
0.032713,0.037522,0.052852,0.011675,0.012019,0.015162,0.03714,0.18873,-50
0.032713,0.037522,0.052852,0.011675,0.012019,0.015162,0.03714,0.18873,-50
0.032713,0.037522,0.052852,0.011675,0.012019,0.015162,0.03714,0.18873,-50
0.032713,0.037522,0.052852,0.011675,0.012019,0.015162,0.03714,0.18873,-50
0.032713,0.037522,0.052852,0.011675,0.012019,0.015162,0.03714,0.18873,-50
0.036337,0.036672,0.045866,0.01114,0.013607,0.017872,0.060229,0.20488,-50
0.036337,0.036672,0.045866,0.01114,0.013607,0.017872,0.060229,0.20488,-50
0.034997,0.036727,0.046065,0.011675,0.013902,0.017872,0.059258,0.19996,-50
0.034997,0.036727,0.046065,0.011675,0.013902,0.017872,0.059258,0.19996,-50
0.035716,0.043592,0.055316,0.012995,0.013532,0.018652,0.06201,0.20214,-50
0.035716,0.043592,0.055316,0.012995,0.013532,0.018652,0.06201,0.20214,-50
0.035716,0.043592,0.055316,0.012995,0.013532,0.018652,0.06201,0.20214,-50
0.029681,0.043004,0.054314,0.013532,0.013755,0.016756,0.063868,0.22075,-50
0.029681,0.043004,0.054314,0.013532,0.013755,0.016756,0.063868,0.22075,-50
0.029232,0.036477,0.049759,0.013228,0.012435,0.01645,0.056246,0.1741,-50
0.029232,0.036477,0.049759,0.013228,0.012435,0.01645,0.056246,0.1741,-50
0.024037,0.034734,0.043848,0.012837,0.014192,0.016817,0.056283,0.22017,-50
0.024037,0.034734,0.043848,0.012837,0.014192,0.016817,0.056283,0.22017,-50
0.024037,0.034734,0.043848,0.012837,0.014192,0.016817,0.056283,0.22017,-50
0.024037,0.034734,0.043848,0.012837,0.014192,0.016817,0.056283,0.22017,-50
0.024037,0.034734,0.043848,0.012837,0.014192,0.016817,0.056283,0.22017,-50
0.027732,0.028917,0.046657,0.012019,0.013829,0.016573,0.055683,0.21827,-50
0.027732,0.028917,0.046657,0.012019,0.013829,0.016573,0.055683,0.21827,-50
0.031894,0.030291,0.049739,0.010956,0.014616,0.01919,0.052698,0.20961,-50
0.031894,0.030291,0.049739,0.010956,0.014616,0.01919,0.052698,0.20961,-50
0.031894,0.030291,0.049739,0.010956,0.014616,0.01919,0.052698,0.20961,-50
0.034084,0.023868,0.047778,0.012353,0.015947,0.018761,0.048768,0.207,-50
0.034084,0.023868,0.047778,0.012353,0.015947,0.018761,0.048768,0.207,-50
0.0352,0.02429,0.047778,0.010956,0.01645,0.017701,0.044607,0.16456,-50
0.0352,0.02429,0.047778,0.010956,0.01645,0.017701,0.044607,0.16456,-50
0.0352,0.02429,0.047778,0.010956,0.01645,0.017701,0.044607,0.16456,-50
0.034617,0.029886,0.045532,0.011411,0.015625,0.016695,0.048872,0.18571,-50
0.034617,0.029886,0.045532,0.011411,0.015625,0.016695,0.048872,0.18571,-50
0.034381,0.023524,0.032557,0.010674,0.01556,0.01569,0.046351,0.16864,-50
0.034381,0.023524,0.032557,0.010674,0.01556,0.01569,0.046351,0.16864,-50
0.034381,0.023524,0.032557,0.010674,0.01556,0.01569,0.046351,0.16864,-50
0.033814,0.031315,0.045443,0.01114,0.014892,0.014754,0.04178,0.16889,-50
0.033814,0.031315,0.045443,0.01114,0.014892,0.014754,0.04178,0.16889,-50
0.031767,0.030824,0.047607,0.011049,0.01412,0.014823,0.040745,0.15112,-50
0.031767,0.030824,0.047607,0.011049,0.01412,0.014823,0.040745,0.15112,-50
0.031767,0.030824,0.047607,0.011049,0.01412,0.014823,0.040745,0.15112,-50
0.032495,0.02595,0.050611,0.010769,0.012995,0.014754,0.045599,0.18897,-50
0.032495,0.02595,0.050611,0.010769,0.012995,0.014754,0.045599,0.18897,-50
0.030791,0.025793,0.052852,0.010578,0.012019,0.019401,0.054688,0.18422,-50
0.030791,0.025793,0.052852,0.010578,0.012019,0.019401,0.054688,0.18422,-50
0.029817,0.025911,0.050991,0.0098821,0.010863,0.019137,0.050711,0.17223,-50
0.029817,0.025911,0.050991,0.0098821,0.010863,0.019137,0.050711,0.17223,-50
0.029817,0.025911,0.050991,0.0098821,0.010863,0.019137,0.050711,0.17223,-50
0.030157,0.022051,0.039296,0.0099845,0.011321,0.02002,0.054464,0.17186,-50
0.030157,0.022051,0.039296,0.0099845,0.011321,0.02002,0.054464,0.17186,-50
0.030157,0.022051,0.039296,0.0099845,0.011321,0.02002,0.054464,0.17186,-50
0.030956,0.023176,0.033964,0.0098821,0.014192,0.021585,0.054426,0.16827,-50
0.030956,0.023176,0.033964,0.0098821,0.014192,0.021585,0.054426,0.16827,-50
0.033146,0.023307,0.032275,0.011321,0.012758,0.018923,0.037765,0.14409,-50
0.033146,0.023307,0.032275,0.011321,0.012758,0.018923,0.037765,0.14409,-50
0.035716,0.023263,0.032022,0.012019,0.01338,0.019083,0.039734,0.13997,-50
0.035716,0.023263,0.032022,0.012019,0.01338,0.019083,0.039734,0.13997,-50
0.035716,0.023263,0.032022,0.012019,0.01338,0.019083,0.039734,0.13997,-50
0.035573,0.034851,0.029162,0.012678,0.013829,0.02067,0.039708,0.1681,-50
0.035573,0.034851,0.029162,0.012678,0.013829,0.02067,0.039708,0.1681,-50
0.035801,0.033451,0.033512,0.015028,0.01412,0.020172,0.043871,0.19595,-50
0.035801,0.033451,0.033512,0.015028,0.01412,0.020172,0.043871,0.19595,-50
0.035801,0.033451,0.033512,0.015028,0.01412,0.020172,0.043871,0.19595,-50
0.029022,0.034909,0.046701,0.015625,0.014892,0.020121,0.044424,0.17578,-50
0.029022,0.034909,0.046701,0.015625,0.014892,0.020121,0.044424,0.17578,-50
0.032775,0.036028,0.043987,0.014476,0.01496,0.018815,0.04799,0.20299,-50
0.032775,0.036028,0.043987,0.014476,0.01496,0.018815,0.04799,0.20299,-50
0.032775,0.036028,0.043987,0.014476,0.01496,0.018815,0.04799,0.20299,-50
0.028634,0.023351,0.043801,0.01412,0.015625,0.019348,0.048914,0.20991,-50
0.028634,0.023351,0.043801,0.01412,0.015625,0.019348,0.048914,0.20991,-50
0.026146,0.026493,0.049841,0.014192,0.01645,0.017701,0.049225,0.22891,-50
0.026146,0.026493,0.049841,0.014192,0.01645,0.017701,0.049225,0.22891,-50
0.026146,0.026493,0.049841,0.014192,0.01645,0.017701,0.049225,0.22891,-50
0.031702,0.020915,0.032899,0.012103,0.019401,0.017585,0.041707,0.22919,-50
0.031702,0.020915,0.032899,0.012103,0.019401,0.017585,0.041707,0.22919,-50
0.031702,0.020915,0.032899,0.012103,0.019401,0.017585,0.041707,0.22919,-50
0.031702,0.020915,0.032899,0.012103,0.019401,0.017585,0.041707,0.22919,-50
0.031702,0.020915,0.032899,0.012103,0.019401,0.017585,0.041707,0.22919,-50
0.032806,0.020071,0.037926,0.013228,0.034617,0.031574,0.036948,0.21481,-50
0.032806,0.020071,0.037926,0.013228,0.034617,0.031574,0.036948,0.21481,-50
0.034381,0.035315,0.046329,0.011762,0.036449,0.032022,0.048726,0.2074,-50
0.034381,0.035315,0.046329,0.011762,0.036449,0.032022,0.048726,0.2074,-50
0.034381,0.035315,0.046329,0.011762,0.036449,0.032022,0.048726,0.2074,-50
0.034381,0.035315,0.046329,0.011762,0.036449,0.032022,0.048726,0.2074,-50
0.034381,0.035315,0.046329,0.011762,0.036449,0.032022,0.048726,0.2074,-50
0.034822,0.03444,0.044401,0.012187,0.039425,0.032149,0.045888,0.18794,-50
0.034822,0.03444,0.044401,0.012187,0.039425,0.032149,0.045888,0.18794,-50
0.03262,0.041878,0.054576,0.012837,0.026799,0.018266,0.051131,0.18025,-50
0.03262,0.041878,0.054576,0.012837,0.026799,0.018266,0.051131,0.18025,-50
0.03262,0.041878,0.054576,0.012837,0.026799,0.018266,0.051131,0.18025,-50
0.036225,0.041463,0.05264,0.014335,0.025114,0.022235,0.057392,0.14603,-50
0.036225,0.041463,0.05264,0.014335,0.025114,0.022235,0.057392,0.14603,-50
0.036672,0.033874,0.04571,0.014616,0.020915,0.023524,0.051586,0.16327,-50
0.036672,0.033874,0.04571,0.014616,0.020915,0.023524,0.051586,0.16327,-50
0.036672,0.033874,0.04571,0.014616,0.020915,0.023524,0.051586,0.16327,-50
0.035858,0.035142,0.04551,0.014546,0.019083,0.023739,0.05192,0.16469,-50
0.035858,0.035142,0.04551,0.014546,0.019083,0.023739,0.05192,0.16469,-50
0.034851,0.035257,0.046417,0.014476,0.018652,0.023782,0.050691,0.16526,-50
0.034851,0.035257,0.046417,0.014476,0.018652,0.023782,0.050691,0.16526,-50
0.034851,0.035257,0.046417,0.014476,0.018652,0.023782,0.050691,0.16526,-50
0.033844,0.028348,0.034084,0.010956,0.012995,0.017294,0.042791,0.17305,-50
0.033844,0.028348,0.034084,0.010956,0.012995,0.017294,0.042791,0.17305,-50
0.031509,0.028811,0.034084,0.011231,0.013681,0.018266,0.043451,0.17101,-50
0.031509,0.028811,0.034084,0.011231,0.013681,0.018266,0.043451,0.17101,-50
0.031509,0.028811,0.034084,0.011231,0.013681,0.018266,0.043451,0.17101,-50
0.027585,0.022911,0.029817,0.010186,0.013829,0.016074,0.041512,0.18827,-50
0.027585,0.022911,0.029817,0.010186,0.013829,0.016074,0.041512,0.18827,-50
0.034646,0.034822,0.044584,0.010863,0.012435,0.01496,0.040495,0.22643,-50
0.035858,0.036616,0.052524,0.011588,0.013073,0.014476,0.037765,0.21102,-50
0.035858,0.036616,0.052524,0.011588,0.013073,0.014476,0.037765,0.21102,-50
0.035286,0.037222,0.051704,0.012019,0.013532,0.015883,0.035858,0.21429,-50
0.035286,0.037222,0.051704,0.012019,0.013532,0.015883,0.035858,0.21429,-50
0.035286,0.037222,0.051704,0.012019,0.013532,0.015883,0.035858,0.21429,-50
0.038326,0.03763,0.052057,0.010956,0.01338,0.016877,0.04799,0.15921,-50
0.038326,0.03763,0.052057,0.010956,0.01338,0.016877,0.04799,0.15921,-50
0.038326,0.03763,0.052057,0.010956,0.01338,0.016877,0.04799,0.15921,-50
0.038326,0.03763,0.052057,0.010956,0.01338,0.016877,0.04799,0.15921,-50
0.038326,0.03763,0.052057,0.010956,0.01338,0.016877,0.04799,0.15921,-50
0.037113,0.02491,0.039141,0.010769,0.015362,0.016573,0.048223,0.16223,-50
0.037113,0.02491,0.039141,0.010769,0.015362,0.016573,0.048223,0.16223,-50
0.037113,0.02491,0.039141,0.010769,0.015362,0.016573,0.048223,0.16223,-50
0.036948,0.025073,0.025793,0.0099845,0.014476,0.017643,0.046483,0.1956,-50
0.036948,0.025073,0.025793,0.0099845,0.014476,0.017643,0.046483,0.1956,-50
0.036893,0.024457,0.026146,0.011411,0.01556,0.015819,0.046875,0.18655,-50
0.036893,0.024457,0.026146,0.011411,0.01556,0.015819,0.046875,0.18655,-50
0.03763,0.029127,0.04072,0.0115,0.014476,0.015362,0.032899,0.21561,-50
0.03763,0.029127,0.04072,0.0115,0.014476,0.015362,0.032899,0.21561,-50
0.03763,0.029127,0.04072,0.0115,0.014476,0.015362,0.032899,0.21561,-50
0.03763,0.029127,0.04072,0.0115,0.014476,0.015362,0.032899,0.21561,-50
0.03763,0.029127,0.04072,0.0115,0.014476,0.015362,0.032899,0.21561,-50
0.035344,0.029852,0.041093,0.012103,0.013975,0.013829,0.032275,0.19697,-50
0.035344,0.029852,0.041093,0.012103,0.013975,0.013829,0.032275,0.19697,-50
0.035344,0.029852,0.041093,0.012103,0.013975,0.013829,0.032275,0.19697,-50
0.035229,0.028168,0.059447,0.011411,0.01338,0.015162,0.032495,0.18883,-50
0.035229,0.028168,0.059447,0.011411,0.01338,0.015162,0.032495,0.18883,-50
0.035229,0.028168,0.059447,0.011411,0.01338,0.015162,0.032495,0.18883,-50
0.028132,0.011762,0.012916,0.0091332,0.011411,0.012995,0.033694,0.084601,0
0.036948,0.014192,0.010384,0.010956,0.012187,0.012019,0.020422,0.083622,0
0.039425,0.014754,0.01114,0.0115,0.013304,0.013228,0.022955,0.11618,0
0.039425,0.014754,0.01114,0.0115,0.013304,0.013228,0.022955,0.11618,0
0.040167,0.014754,0.011588,0.010384,0.011848,0.012995,0.026493,0.12989,0
0.040167,0.014754,0.011588,0.010384,0.011848,0.012995,0.026493,0.12989,0
0.040167,0.014754,0.011588,0.010384,0.011848,0.012995,0.026493,0.12989,0
0.040167,0.014754,0.011588,0.010384,0.011848,0.012995,0.026493,0.12989,0
0.038827,0.015229,0.016634,0.0099845,0.010863,0.013829,0.03089,0.073371,0
0.038827,0.015229,0.016634,0.0099845,0.010863,0.013829,0.03089,0.073371,0
0.033542,0.014823,0.016388,0.010674,0.010384,0.014192,0.030291,0.094302,0
0.033542,0.014823,0.016388,0.010674,0.010384,0.014192,0.030291,0.094302,0
0.033542,0.014823,0.016388,0.010674,0.010384,0.014192,0.030291,0.094302,0
0.033542,0.014823,0.016388,0.010674,0.010384,0.014192,0.030291,0.094302,0
0.033542,0.014823,0.016388,0.010674,0.010384,0.014192,0.030291,0.094302,0
0.03262,0.014192,0.01645,0.010578,0.011762,0.014616,0.027325,0.091931,0
0.03262,0.014192,0.01645,0.010578,0.011762,0.014616,0.027325,0.091931,0
0.024829,0.012916,0.012916,0.011049,0.011675,0.014476,0.026723,0.095172,0
0.024829,0.012916,0.012916,0.011049,0.011675,0.014476,0.026723,0.095172,0
0.028277,0.012758,0.015095,0.010769,0.011049,0.011321,0.016325,0.073454,0
0.028277,0.012758,0.015095,0.010769,0.011049,0.011321,0.016325,0.073454,0
0.027914,0.012995,0.014476,0.0099845,0.011321,0.010956,0.018155,0.09202,0
0.027914,0.012995,0.014476,0.0099845,0.011321,0.010956,0.018155,0.09202,0
0.027914,0.012995,0.014476,0.0099845,0.011321,0.010956,0.018155,0.09202,0
0.027914,0.012995,0.014476,0.0099845,0.011321,0.010956,0.018155,0.09202,0
0.027914,0.012995,0.014476,0.0099845,0.011321,0.010956,0.018155,0.09202,0
0.027914,0.012995,0.014476,0.0099845,0.011321,0.010956,0.018155,0.09202,0
0.027914,0.012995,0.014476,0.0099845,0.011321,0.010956,0.018155,0.09202,0
0.027914,0.012995,0.014476,0.0099845,0.011321,0.010956,0.018155,0.09202,0
0.029954,0.0115,0.020817,0.011762,0.010674,0.010086,0.023394,0.080131,0
0.029954,0.0115,0.020817,0.011762,0.010674,0.010086,0.023394,0.080131,0
0.029954,0.0115,0.020817,0.011762,0.010674,0.010086,0.023394,0.080131,0
0.029954,0.0115,0.020817,0.011762,0.010674,0.010086,0.023394,0.080131,0
0.029954,0.0115,0.020817,0.011762,0.010674,0.010086,0.023394,0.080131,0
0.029543,0.011675,0.020571,0.011762,0.013829,0.0093533,0.026146,0.083366,0
0.029543,0.011675,0.020571,0.011762,0.013829,0.0093533,0.026146,0.083366,0
0.033934,0.010578,0.020071,0.011848,0.01496,0.012678,0.033542,0.13909,0
0.033934,0.010578,0.020071,0.011848,0.01496,0.012678,0.033542,0.13909,0
0.033299,0.010482,0.019713,0.011762,0.015028,0.012995,0.032961,0.14036,0
0.033299,0.010482,0.019713,0.011762,0.015028,0.012995,0.032961,0.14036,0
0.034587,0.0097786,0.017585,0.01227,0.01338,0.01412,0.033964,0.15998,0
0.034587,0.0097786,0.017585,0.01227,0.01338,0.01412,0.033964,0.15998,0
0.034587,0.0097786,0.017585,0.01227,0.01338,0.01412,0.033964,0.15998,0
0.03444,0.010384,0.020422,0.012597,0.012995,0.015162,0.032651,0.15746,0
0.023953,0.01114,0.017872,0.010769,0.012187,0.011231,0.020323,0.10781,0
0.023953,0.01114,0.017872,0.010769,0.012187,0.011231,0.020323,0.10781,0
0.023219,0.010863,0.017352,0.0115,0.012187,0.010956,0.022005,0.09442,0
0.023219,0.010863,0.017352,0.0115,0.012187,0.010956,0.022005,0.09442,0
0.023219,0.010863,0.017352,0.0115,0.012187,0.010956,0.022005,0.09442,0
0.02361,0.010863,0.016511,0.010578,0.011934,0.010384,0.024623,0.054108,0
0.02361,0.010863,0.016511,0.010578,0.011934,0.010384,0.024623,0.054108,0
0.034558,0.011321,0.018869,0.0097786,0.012187,0.010956,0.026378,0.069234,0
0.034558,0.011321,0.018869,0.0097786,0.012187,0.010956,0.026378,0.069234,0
0.034558,0.011321,0.018869,0.0097786,0.012187,0.010956,0.026378,0.069234,0
0.040091,0.011848,0.017235,0.010482,0.011934,0.011675,0.030725,0.089691,0
0.040091,0.011848,0.017235,0.010482,0.011934,0.011675,0.030725,0.089691,0
0.040091,0.011848,0.017235,0.010482,0.011934,0.011675,0.030725,0.089691,0
0.040091,0.011848,0.017235,0.010482,0.011934,0.011675,0.030725,0.089691,0
0.043004,0.012995,0.02149,0.010956,0.012353,0.011762,0.023696,0.092395,0
0.043004,0.012995,0.02149,0.010956,0.012353,0.011762,0.023696,0.092395,0
0.040444,0.01569,0.017701,0.011321,0.012678,0.010384,0.022417,0.099201,0
0.040444,0.01569,0.017701,0.011321,0.012678,0.010384,0.022417,0.099201,0
0.040444,0.01569,0.017701,0.011321,0.012678,0.010384,0.022417,0.099201,0
0.030758,0.014823,0.018976,0.011321,0.010674,0.0095683,0.020422,0.098056,0
0.030824,0.015095,0.018543,0.0115,0.011588,0.0095683,0.019295,0.09112,0
0.030824,0.015095,0.018543,0.0115,0.011588,0.0095683,0.019295,0.09112,0
0.030824,0.015095,0.018543,0.0115,0.011588,0.0095683,0.019295,0.09112,0
0.030824,0.015095,0.018543,0.0115,0.011588,0.0095683,0.019295,0.09112,0
0.029232,0.016511,0.017872,0.012019,0.01227,0.012353,0.027063,0.08943,0
0.029232,0.016511,0.017872,0.012019,0.01227,0.012353,0.027063,0.08943,0
0.029232,0.016511,0.017872,0.012019,0.01227,0.012353,0.027063,0.08943,0
0.029232,0.016511,0.017872,0.012019,0.01227,0.012353,0.027063,0.08943,0
0.029232,0.016511,0.017872,0.012019,0.01227,0.012353,0.027063,0.08943,0
0.029232,0.016511,0.017872,0.012019,0.01227,0.012353,0.027063,0.08943,0
0.029232,0.016511,0.017872,0.012019,0.01227,0.012353,0.027063,0.08943,0
0.029232,0.016511,0.017872,0.012019,0.01227,0.012353,0.027063,0.08943,0
0.029232,0.016511,0.017872,0.012019,0.01227,0.012353,0.027063,0.08943,0
0.029232,0.016511,0.017872,0.012019,0.01227,0.012353,0.027063,0.08943,0
0.029232,0.016511,0.017872,0.012019,0.01227,0.012353,0.027063,0.08943,0
0.029232,0.016511,0.017872,0.012019,0.01227,0.012353,0.027063,0.08943,0
0.029232,0.016511,0.017872,0.012019,0.01227,0.012353,0.027063,0.08943,0
0.041315,0.0162,0.015755,0.010482,0.010769,0.011588,0.026146,0.094679,0
0.041315,0.0162,0.015755,0.010482,0.010769,0.011588,0.026146,0.094679,0
0.041315,0.0162,0.015755,0.010482,0.010769,0.011588,0.026146,0.094679,0
0.041315,0.0162,0.015755,0.010482,0.010769,0.011588,0.026146,0.094679,0
0.041315,0.0162,0.015755,0.010482,0.010769,0.011588,0.026146,0.094679,0
0.041315,0.0162,0.015755,0.010482,0.010769,0.011588,0.026146,0.094679,0
0.041315,0.0162,0.015755,0.010482,0.010769,0.011588,0.026146,0.094679,0
0.041315,0.0162,0.015755,0.010482,0.010769,0.011588,0.026146,0.094679,0
0.041585,0.013902,0.013532,0.010578,0.011321,0.015028,0.032022,0.09913,0
0.041585,0.013902,0.013532,0.010578,0.011321,0.015028,0.032022,0.09913,0
0.041389,0.013607,0.013607,0.010578,0.011588,0.015028,0.031735,0.076852,0
0.041389,0.013607,0.013607,0.010578,0.011588,0.015028,0.031735,0.076852,0
0.041389,0.013607,0.013607,0.010578,0.011588,0.015028,0.031735,0.076852,0
0.041414,0.013532,0.013607,0.010863,0.011588,0.015095,0.031735,0.075893,0
0.041414,0.013532,0.013607,0.010863,0.011588,0.015095,0.031735,0.075893,0
0.032275,0.011231,0.01569,0.010186,0.012916,0.010578,0.031445,0.077694,0
0.032275,0.011231,0.01569,0.010186,0.012916,0.010578,0.031445,0.077694,0
0.032275,0.011231,0.01569,0.010186,0.012916,0.010578,0.031445,0.077694,0
0.029612,0.011231,0.015755,0.010186,0.01315,0.011231,0.032961,0.077812,0
0.029612,0.011231,0.015755,0.010186,0.01315,0.011231,0.032961,0.077812,0
0.034233,0.01315,0.019969,0.010384,0.013681,0.012435,0.03019,0.089498,0
0.034233,0.01315,0.019969,0.010384,0.013681,0.012435,0.03019,0.089498,0
0.031445,0.012435,0.0162,0.010286,0.012758,0.013228,0.032243,0.10395,0
0.031445,0.012435,0.0162,0.010286,0.012758,0.013228,0.032243,0.10395,0
0.031445,0.012435,0.0162,0.010286,0.012758,0.013228,0.032243,0.10395,0
0.032275,0.013073,0.017929,0.010482,0.013073,0.013456,0.033115,0.10664,0
0.032275,0.013073,0.017929,0.010482,0.013073,0.013456,0.033115,0.10664,0
0.032557,0.013456,0.014754,0.0087927,0.010863,0.012353,0.024332,0.10558,0
0.032557,0.013456,0.014754,0.0087927,0.010863,0.012353,0.024332,0.10558,0
0.032589,0.013228,0.015362,0.008317,0.010578,0.011675,0.024705,0.10166,0
0.032589,0.013228,0.015362,0.008317,0.010578,0.011675,0.024705,0.10166,0
0.032589,0.013228,0.015362,0.008317,0.010578,0.011675,0.024705,0.10166,0
0.032589,0.013228,0.015362,0.008317,0.010578,0.011675,0.024705,0.10166,0
